-0.06545755,-1.2070804,-0.81048256,0.06396145,0.8393916,0.5541422,-0.039905675,-0.04166352,-1.4768685,-0.52469885,-1.2651778,-0.662031,-0.98130524,-0.5167752,-0.76952136,-0.46873602
1.1004057,3.799952,1.2761772,1.422115,-0.921758,-0.6700018,-0.039905675,0.22242874,-1.4768685,-0.52469885,-1.2651778,-0.662031,-0.98130524,-0.5167752,-0.76952136,-0.46873602
1.1004057,3.799952,1.2761772,1.422115,-0.921758,-0.6700018,-0.039905675,0.22242874,-1.4768685,-0.52469885,-1.2651778,-0.662031,-0.98130524,-0.5167752,-0.76952136,-0.46873602
-0.64838916,-1.0401793,-1.424206,-1.5658228,0.13493174,0.14609417,0.08637264,-0.04166352,-1.4768685,-0.52469885,-1.2651778,-0.662031,-0.98130524,-0.5167752,-0.76952136,-0.46873602
0.32316354,0.1281283,-0.13538675,-1.2036486,-0.04118322,-0.6700018,0.21265097,0.09038261,-1.4768685,-0.52469885,-1.2651778,-0.662031,-0.98130524,-0.5167752,-0.76952136,-0.46873602
0.32316354,0.1281283,-0.13538675,-1.2036486,-0.04118322,-0.6700018,0.21265097,0.09038261,-1.4768685,-0.52469885,-1.2651778,-0.662031,-0.98130524,-0.5167752,-0.76952136,-0.46873602
0.51747406,-0.038772784,1.0306878,0.42613572,0.6632766,0.35011816,0.21265097,0.22242874,-1.4768685,-0.52469885,-1.2651778,-0.662031,-0.98130524,-0.5167752,-0.76952136,-0.46873602
0.51747406,-0.038772784,1.0306878,0.42613572,0.6632766,0.35011816,0.21265097,0.22242874,-1.4768685,-0.52469885,-1.2651778,-0.662031,-0.98130524,-0.5167752,-0.76952136,-0.46873602
-0.2597681,-0.53947604,-0.8718549,0.06396145,-0.21729818,-0.26195383,-0.039905675,-0.17370965,-1.4768685,-0.52469885,-1.2355298,-0.662031,-0.98130524,-0.5167752,-0.76952136,-0.46873602
-0.45407864,0.9626337,-1.9151847,-0.20766926,-1.097873,-0.26195383,0.21265097,-0.04166352,-1.4768685,-0.52469885,-1.2355298,-0.662031,-0.98130524,-0.5167752,-0.76952136,-0.46873602
-0.06545755,-0.8732782,0.47833672,0.33559215,0.3110467,0.35011816,0.21265097,0.22242874,-1.4768685,-0.52469885,-1.2355298,-0.662031,-0.98130524,-0.5167752,-0.76952136,-0.46873602
-1.0370102,-1.0401793,0.171475,0.15450501,0.3110467,0.35011816,-0.41874063,-0.30575576,-1.4768685,-0.52469885,-1.2355298,-0.662031,-0.98130524,-0.5167752,-0.76952136,-0.46873602
-2.9801157,-1.8746847,0.41696438,1.1504843,0.13493174,0.35011816,0.21265097,-0.4378019,-1.4768685,-0.52469885,-1.2355298,-0.662031,-0.98130524,-0.5167752,-0.76952136,-0.46873602
-2.9801157,-1.8746847,0.41696438,1.1504843,0.13493174,0.35011816,0.21265097,-0.4378019,-1.4768685,-0.52469885,-1.2355298,-0.662031,-0.98130524,-0.5167752,-0.76952136,-0.46873602
2.8492005,2.6316445,0.23284733,-0.026582126,0.48716167,0.14609417,-0.039905675,0.22242874,-1.4768685,-0.52469885,-1.2355298,-0.662031,-0.98130524,-0.5167752,-0.76952136,-0.46873602
-0.06545755,-0.038772784,-0.01264205,-0.20766926,-0.21729818,-0.05792983,-0.039905675,-0.04166352,-1.4768685,-0.52469885,-1.2355298,-0.662031,-0.98130524,-0.5167752,-0.76952136,-0.46873602
0.12885298,0.62883157,1.7057836,-0.6603871,-0.7456431,-0.05792983,-0.039905675,0.22242874,-1.4768685,-0.52469885,-1.2355298,-0.662031,-0.98130524,-0.5167752,-0.76952136,-0.46873602
0.12885298,0.62883157,1.7057836,-0.6603871,-0.7456431,-0.05792983,-0.039905675,0.22242874,-1.4768685,-0.52469885,-1.2355298,-0.662031,-0.98130524,-0.5167752,-0.76952136,-0.46873602
0.90609515,-0.37257496,0.8465708,0.15450501,0.6632766,0.35011816,-0.039905675,0.09038261,-1.4768685,-0.52469885,-1.2355298,-0.662031,-0.98130524,-0.5167752,-0.76952136,-0.46873602
0.90609515,-0.37257496,0.8465708,0.15450501,0.6632766,0.35011816,-0.039905675,0.09038261,-1.4768685,-0.52469885,-1.2355298,-0.662031,-0.98130524,-0.5167752,-0.76952136,-0.46873602
0.12885298,-0.038772784,-0.5036208,0.06396145,0.3110467,-0.26195383,0.08637264,-0.17370965,-1.4768685,-0.52469885,-1.2355298,-0.662031,-0.98130524,-0.5167752,-0.76952136,-0.46873602
0.12885298,-0.038772784,-0.5036208,0.06396145,0.3110467,-0.26195383,0.08637264,-0.17370965,-1.4768685,-0.52469885,-1.2355298,-0.662031,-0.98130524,-0.5167752,-0.76952136,-0.46873602
-0.06545755,-0.7063771,-0.25813144,-0.29821283,0.48716167,-0.05792983,-0.039905675,-0.30575576,-1.4768685,-0.5600989,-1.2651778,-0.662031,-0.98130524,-0.5167752,-0.76952136,-0.46873602
1.1004057,-1.5408825,-0.31950378,0.42613572,1.0155065,0.5541422,0.21265097,0.22242874,-1.4768685,-0.5600989,-1.2651778,-0.662031,-0.98130524,-0.5167752,-0.76952136,-0.46873602
-0.06545755,-0.53947604,-1.1787167,-0.1171257,0.48716167,0.5541422,-0.29246232,-0.30575576,-1.4768685,-0.5600989,-1.2651778,-0.662031,-0.98130524,-0.5167752,-0.76952136,-0.46873602
-0.06545755,-0.53947604,-1.1787167,-0.1171257,0.48716167,0.5541422,-0.29246232,-0.30575576,-1.4768685,-0.5600989,-1.2651778,-0.6353315,-0.98130524,-0.5167752,-0.76952136,-0.46873602
-0.2597681,0.29502937,0.29421967,0.33559215,0.6632766,0.14609417,-0.039905675,0.22242874,-1.4768685,-0.5600989,-1.2651778,-0.6353315,-0.98130524,-0.5167752,-0.76952136,-0.46873602
-2.3971841,-2.8760912,-1.9765571,-0.56984353,-0.7456431,-0.26195383,-0.039905675,-0.30575576,-1.4768685,-0.5600989,-1.2651778,-0.6353315,-0.98130524,-0.5167752,-0.76952136,-0.46873602
-0.45407864,0.62883157,0.41696438,0.15450501,-0.04118322,-0.05792983,0.08637264,-0.17370965,-1.4768685,-0.5600989,-1.2651778,-0.6353315,-0.98130524,-0.5167752,-0.76952136,-0.46873602
0.32316354,-1.5408825,-0.6877379,-1.0225614,0.13493174,0.14609417,0.08637264,0.486521,-1.4768685,-0.5600989,-1.2651778,-0.6353315,-0.98130524,-0.5167752,-0.76952136,-0.46873602
-2.008563,-1.8746847,0.110102646,0.33559215,-1.2739879,-0.6700018,0.08637264,-0.17370965,-1.4768685,-0.5600989,-1.2651778,-0.6353315,-0.98130524,-0.5167752,-0.76952136,-0.46873602
-2.008563,-1.8746847,0.110102646,0.33559215,-1.2739879,-0.6700018,0.08637264,-0.17370965,-1.4768685,-0.5600989,-1.2355298,-0.662031,-0.98130524,-0.5167752,-0.76952136,-0.46873602
0.12885298,-0.038772784,-0.56499314,-0.47929996,-0.5695281,-0.46597782,0.08637264,0.09038261,-1.4768685,-0.5600989,-1.2355298,-0.662031,-0.98130524,-0.5167752,-0.76952136,-0.46873602
0.12885298,-0.038772784,-0.56499314,-0.47929996,-0.5695281,-0.46597782,0.08637264,0.09038261,-1.4768685,-0.5600989,-1.2355298,-0.662031,-0.98130524,-0.5167752,-0.76952136,-0.46873602
0.12885298,-0.038772784,-0.56499314,-0.47929996,-0.5695281,-0.46597782,0.08637264,0.09038261,-1.4768685,-0.5600989,-1.2355298,-0.662031,-0.98130524,-0.5167752,-0.76952136,-0.46873602
0.7117846,1.1295348,0.5397091,1.0599407,0.48716167,0.35011816,0.08637264,0.22242874,-1.4768685,-0.5600989,-1.2355298,-0.662031,-0.98130524,-0.5167752,-0.76952136,-0.46873602
-1.6199418,-2.2084868,-3.5108657,-1.8374535,-0.39341313,0.14609417,0.21265097,-0.04166352,-1.4768685,-0.5600989,-1.2355298,-0.662031,-0.98130524,-0.5167752,-0.76952136,-0.46873602
0.12885298,-2.2084868,-0.8718549,1.2410278,0.8393916,0.35011816,0.3389293,0.22242874,-1.4768685,-0.5600989,-1.2355298,-0.662031,-0.98130524,-0.5167752,-0.76952136,-0.46873602
2.0719583,1.2964358,0.7238261,0.5166793,-0.39341313,-0.26195383,-0.039905675,0.22242874,-1.4768685,-0.5600989,-1.2355298,-0.662031,-0.98130524,-0.5167752,-0.76952136,-0.46873602
-0.8426997,1.2964358,0.47833672,-0.1171257,-0.7456431,-0.26195383,0.08637264,-0.04166352,-1.4768685,-0.5600989,-1.2355298,-0.662031,-0.98130524,-0.5167752,-0.76952136,-0.46873602
-0.2597681,-1.0401793,-0.01264205,0.33559215,-0.04118322,-0.26195383,0.08637264,-0.04166352,-1.4768685,-0.5600989,-1.2355298,-0.662031,-0.98130524,-0.5167752,-0.76952136,-0.46873602
-0.06545755,1.2964358,0.7238261,0.15450501,0.3110467,-0.26195383,-0.29246232,-0.17370965,-1.4768685,-0.5600989,-1.2355298,-0.662031,-0.98130524,-0.5167752,-0.76952136,-0.46873602
-0.06545755,1.2964358,0.7238261,0.15450501,0.3110467,-0.26195383,-0.29246232,-0.17370965,-1.4768685,-0.5600989,-1.2355298,-0.662031,-0.98130524,-0.5167752,-0.76952136,-0.46873602
-0.06545755,1.2964358,0.7238261,0.15450501,0.3110467,-0.26195383,-0.29246232,-0.17370965,-1.4768685,-0.5600989,-1.2355298,-0.662031,-0.98130524,-0.5167752,-0.76952136,-0.46873602
0.32316354,-0.038772784,-0.25813144,0.06396145,-0.39341313,0.14609417,0.08637264,-0.04166352,-1.4768685,-0.5600989,-1.2355298,-0.662031,-0.98130524,-0.5167752,-0.76952136,-0.46873602
0.32316354,3.299249,1.1534325,-0.1171257,-0.39341313,-0.05792983,-0.039905675,-0.17370965,-1.4768685,-0.5600989,-1.2651778,-0.662031,-0.98130524,-0.5167752,-0.76952136,-0.46873602
0.51747406,-0.53947604,-1.2400889,-0.56984353,-0.39341313,-0.26195383,-0.039905675,0.09038261,-1.4768685,-0.5600989,-1.2651778,-0.662031,-0.98130524,-0.5167752,-0.76952136,-0.46873602
0.7117846,1.630238,0.35559204,-0.47929996,-0.21729818,-0.26195383,-0.166184,0.22242874,-1.4768685,-0.5600989,-1.2651778,-0.662031,-0.98130524,-0.5167752,-0.76952136,-0.46873602
0.7117846,1.630238,0.35559204,-0.47929996,-0.21729818,-0.26195383,-0.166184,0.22242874,-1.4768685,-0.5600989,-1.2651778,-0.662031,-0.98130524,-0.5167752,-0.76952136,-0.46873602
0.12885298,-0.37257496,-0.38087612,-0.29821283,-0.04118322,0.35011816,-0.166184,-0.17370965,-1.4768685,-0.5600989,-1.2651778,-0.662031,-0.98130524,-0.5167752,-0.76952136,-0.46873602
-0.8426997,-0.20567386,2.13539,-0.20766926,-0.21729818,-0.26195383,0.08637264,-0.17370965,-1.4768685,-0.5600989,-1.2651778,-0.662031,-0.98130524,-0.5167752,-0.76952136,-0.46873602
0.51747406,0.9626337,0.23284733,0.24504858,1.1916215,0.35011816,-0.166184,-0.17370965,-1.4768685,-0.5600989,-1.2651778,-0.662031,-0.98130524,-0.5167752,-0.76952136,-0.46873602
0.51747406,0.9626337,0.23284733,0.24504858,1.1916215,0.35011816,-0.166184,-0.17370965,-1.4768685,-0.5600989,-1.2651778,-0.662031,-0.98130524,-0.5167752,-0.76952136,-0.46873602
1.1004057,-0.8732782,-0.01264205,0.87885356,0.48716167,0.14609417,0.08637264,0.486521,-1.4768685,-0.5600989,-1.2651778,-0.662031,-0.98130524,-0.5167752,-0.76952136,-0.46873602
1.1004057,-0.8732782,-0.01264205,0.87885356,0.48716167,0.14609417,0.08637264,0.486521,-1.4768685,-0.5600989,-1.2651778,-0.662031,-0.98130524,-0.5167752,-0.76952136,-0.46873602
-0.45407864,1.1295348,0.110102646,-0.84147424,-1.097873,-0.46597782,0.08637264,-0.04166352,-1.4768685,-0.5600989,-1.2651778,-0.662031,-0.98130524,-0.5167752,-0.76952136,-0.46873602
1.4890268,1.2964358,0.5397091,0.78831,0.48716167,-0.26195383,0.08637264,0.22242874,-1.4768685,-0.52469885,-1.2651778,-0.662031,-0.98130524,-0.5167752,-0.76952136,-0.46873602
-0.2597681,2.4647434,0.110102646,-0.20766926,-0.21729818,-0.05792983,0.08637264,-0.04166352,-1.4768685,-0.52469885,-1.2651778,-0.662031,-0.98130524,-0.5167752,-0.76952136,-0.46873602
-0.2597681,2.4647434,0.110102646,-0.20766926,-0.21729818,-0.05792983,0.08637264,-0.04166352,-1.4768685,-0.52469885,-1.2651778,-0.662031,-0.98130524,-0.5167752,-0.76952136,-0.46873602
-0.2597681,2.4647434,0.110102646,-0.20766926,-0.21729818,-0.05792983,0.08637264,-0.04166352,-1.4768685,-0.52469885,-1.2651778,-0.662031,-0.98130524,-0.5167752,-0.76952136,-0.46873602
-1.4256313,-0.37257496,-0.19675909,-0.3887564,-0.04118322,-0.26195383,0.08637264,-0.17370965,-1.4768685,-0.52469885,-1.2651778,-0.662031,-0.98130524,-0.5167752,-0.76952136,-0.46873602
0.7117846,-1.3739815,-0.074014395,0.5166793,0.48716167,0.5541422,0.08637264,0.09038261,-1.4477986,-0.5600989,-1.2355298,-0.662031,-0.98130524,-0.5167752,-0.76952136,-0.46873602
0.51747406,2.2978423,0.60108143,-0.026582126,0.6632766,0.14609417,-0.039905675,-0.17370965,-1.4477986,-0.5600989,-1.2355298,-0.662031,-0.98130524,-0.5167752,-0.76952136,-0.46873602
-2.785805,-1.3739815,-0.62636554,-0.1171257,0.48716167,0.14609417,-0.039905675,-0.17370965,-1.4477986,-0.5600989,-1.2355298,-0.662031,-0.98130524,-0.5167752,-0.76952136,-0.46873602
-2.785805,-1.3739815,-0.62636554,-0.1171257,0.48716167,0.14609417,-0.039905675,-0.17370965,-1.4477986,-0.5600989,-1.2355298,-0.662031,-0.98130524,-0.5167752,-0.76952136,-0.46873602
1.2947162,1.1295348,-0.62636554,-0.6603871,0.13493174,-0.05792983,0.08637264,0.09038261,-1.4477986,-0.5600989,-1.2355298,-0.662031,-0.98130524,-0.5167752,-0.76952136,-0.46873602
1.2947162,1.1295348,-0.62636554,-0.6603871,0.13493174,-0.05792983,0.08637264,0.09038261,-1.4768685,-0.5600989,-1.2355298,-0.662031,-0.98130524,-0.5167752,-0.76952136,-0.46873602
-0.06545755,1.1295348,0.171475,0.24504858,-0.39341313,-0.46597782,-0.166184,-0.30575576,-1.4768685,-0.5600989,-1.2355298,-0.662031,-0.98130524,-0.5167752,-0.76952136,-0.46873602
0.51747406,-1.0401793,0.048730295,-0.026582126,0.6632766,0.35011816,0.3389293,0.35447487,-1.4768685,-0.5600989,-1.2355298,-0.662031,-0.98130524,-0.5167752,-0.76952136,-0.46873602
0.32316354,1.2964358,0.23284733,0.60722286,-0.04118322,-0.05792983,0.08637264,-0.17370965,-1.4768685,-0.5600989,-1.2355298,-0.662031,-0.98130524,-0.5167752,-0.76952136,-0.46873602
-0.06545755,0.9626337,0.9079431,0.60722286,0.6632766,0.14609417,0.21265097,0.09038261,-1.4477986,-0.5600989,-1.2355298,-0.662031,-0.98130524,-0.5167752,-0.76952136,-0.46873602
-0.06545755,0.9626337,0.9079431,0.60722286,0.6632766,0.14609417,0.21265097,0.09038261,-1.4477986,-0.5600989,-1.2355298,-0.662031,-0.98130524,-0.5167752,-0.76952136,-0.46873602
-0.45407864,-1.5408825,-0.56499314,-1.0225614,0.13493174,-0.26195383,-0.29246232,-0.04166352,-1.4477986,-0.5600989,-1.2355298,-0.662031,-0.98130524,-0.5167752,-0.76952136,-0.46873602
0.90609515,0.9626337,1.7057836,0.5166793,-0.39341313,-0.05792983,-0.039905675,0.22242874,-1.4477986,-0.5600989,-1.2355298,-0.662031,-0.98130524,-0.5167752,-0.76952136,-0.46873602
-0.8426997,-2.0415857,-0.5036208,-0.026582126,-0.21729818,0.14609417,-0.29246232,-0.30575576,-1.4477986,-0.5600989,-1.2355298,-0.662031,-0.98130524,-0.5167752,-0.76952136,-0.46873602
-0.06545755,-0.8732782,-0.19675909,-0.026582126,0.13493174,0.14609417,-0.166184,-0.4378019,-1.4477986,-0.5600989,-1.2355298,-0.662031,-0.98130524,-0.5167752,-0.76952136,-0.46873602
0.12885298,0.46193045,-0.074014395,-0.20766926,-0.7456431,-0.26195383,0.08637264,-0.30575576,-1.4477986,-0.5600989,-1.2355298,-0.662031,-0.98130524,-0.5167752,-0.76952136,-0.46873602
0.12885298,0.46193045,-0.074014395,-0.20766926,-0.7456431,-0.26195383,0.08637264,-0.30575576,-1.4477986,-0.5600989,-1.2651778,-0.662031,-0.98130524,-0.5167752,-0.76952136,-0.46873602
0.51747406,-0.7063771,-0.5036208,0.5166793,0.3110467,-0.05792983,0.08637264,0.22242874,-1.4477986,-0.5600989,-1.2651778,-0.662031,-0.98130524,-0.5167752,-0.76952136,-0.46873602
-0.06545755,-0.7063771,-0.93322724,0.33559215,0.3110467,0.5541422,0.08637264,0.35447487,-1.4477986,-0.5600989,-1.2651778,-0.662031,-0.98130524,-0.5167752,-0.76952136,-0.46873602
-0.06545755,-0.7063771,-0.93322724,0.33559215,0.3110467,0.5541422,0.08637264,0.35447487,-1.4477986,-0.5600989,-1.2651778,-0.662031,-0.98130524,-0.5167752,-0.76952136,-0.46873602
0.7117846,1.1295348,0.78519845,-0.6603871,0.13493174,0.35011816,0.08637264,0.09038261,-1.4477986,-0.5600989,-1.2651778,-0.662031,-0.98130524,-0.5167752,-0.76952136,-0.46873602
0.32316354,-0.53947604,-0.01264205,0.42613572,0.6632766,0.5541422,0.08637264,0.22242874,-1.4477986,-0.5600989,-1.2651778,-0.662031,-0.98130524,-0.5167752,-0.76952136,-0.46873602
0.32316354,-0.53947604,-0.01264205,0.42613572,0.6632766,0.5541422,0.08637264,0.22242874,-1.4477986,-0.5600989,-1.2651778,-0.662031,-0.98130524,-0.5167752,-0.76952136,-0.46873602
0.32316354,-0.53947604,-0.01264205,0.42613572,0.6632766,0.5541422,0.08637264,0.22242874,-1.4477986,-0.5600989,-1.2651778,-0.662031,-0.98130524,-0.5167752,-0.76952136,-0.46873602
-0.8426997,-1.8746847,-0.81048256,-0.47929996,-0.39341313,-0.05792983,-0.166184,-0.04166352,-1.4477986,-0.52469885,-1.2355298,-0.662031,-0.98130524,-0.5167752,-0.76952136,-0.46873602
0.90609515,0.62883157,0.110102646,0.06396145,0.8393916,0.14609417,-0.039905675,0.09038261,-1.4477986,-0.52469885,-1.2355298,-0.662031,-0.98130524,-0.5167752,-0.76952136,-0.46873602
-1.4256313,-0.8732782,-0.25813144,-0.1171257,-1.097873,-0.46597782,-0.039905675,-0.30575576,-1.4477986,-0.52469885,-1.2355298,-0.662031,-0.98130524,-0.5167752,-0.76952136,-0.46873602
-0.06545755,0.1281283,0.41696438,0.15450501,-0.04118322,0.14609417,-0.166184,-0.17370965,-1.4477986,-0.52469885,-1.2355298,-0.662031,-0.98130524,-0.5167752,-0.76952136,-0.46873602
-0.2597681,1.9640402,1.2148049,0.24504858,-0.04118322,-0.46597782,-0.166184,-0.17370965,-1.4477986,-0.5600989,-1.2355298,-0.662031,-0.98130524,-0.5167752,-0.76952136,-0.46873602
-0.2597681,1.9640402,1.2148049,0.24504858,-0.04118322,-0.46597782,-0.166184,-0.17370965,-1.4477986,-0.5600989,-1.2355298,-0.662031,-0.98130524,-0.5167752,-0.76952136,-0.46873602
1.2947162,0.29502937,1.0306878,0.9693971,1.1916215,0.7581662,0.08637264,0.486521,-1.4477986,-0.5600989,-1.2355298,-0.662031,-0.98130524,-0.5167752,-0.76952136,-0.46873602
1.2947162,0.29502937,1.0306878,0.9693971,1.1916215,0.7581662,0.08637264,0.486521,-1.4477986,-0.5600989,-1.2355298,-0.662031,-0.98130524,-0.5167752,-0.76952136,-0.46873602
0.12885298,-0.53947604,-0.31950378,0.06396145,0.48716167,-0.26195383,-0.29246232,-0.04166352,-1.4477986,-0.5600989,-1.2355298,-0.662031,-0.98130524,-0.5167752,-0.76952136,-0.46873602
-0.2597681,-0.53947604,-0.074014395,-0.47929996,0.13493174,0.35011816,0.08637264,-0.04166352,-1.4477986,-0.52469885,-1.2651778,-0.662031,-0.98130524,-0.5167752,-0.76952136,-0.46873602
-0.64838916,0.1281283,1.0306878,0.24504858,-0.5695281,-0.05792983,0.08637264,-0.04166352,-1.4477986,-0.52469885,-1.2651778,-0.662031,-0.98130524,-0.5167752,-0.76952136,-0.46873602
-1.0370102,-0.20567386,-0.44224846,0.6977664,-0.04118322,-0.05792983,0.08637264,0.09038261,-1.4477986,-0.52469885,-1.2651778,-0.662031,-0.98130524,-0.5167752,-0.76952136,-0.46873602
-1.0370102,-0.20567386,-0.44224846,0.6977664,-0.04118322,-0.05792983,0.08637264,0.09038261,-1.4477986,-0.52469885,-1.2651778,-0.662031,-0.98130524,-0.5167752,-0.76952136,-0.46873602
0.32316354,1.463337,-0.074014395,-0.29821283,-0.21729818,-0.05792983,0.3389293,-0.04166352,-1.4477986,-0.5600989,-1.2651778,-0.662031,-0.98130524,-0.5167752,-0.76952136,-0.46873602
0.32316354,1.463337,-0.074014395,-0.29821283,-0.21729818,-0.05792983,0.3389293,-0.04166352,-1.4477986,-0.5600989,-1.2651778,-0.662031,-0.98130524,-0.5167752,-0.76952136,-0.46873602
-0.8426997,-0.8732782,-0.01264205,1.8748329,0.8393916,0.7581662,0.3389293,-0.04166352,0.96724087,-0.935605,1.3748981,1.0931906,1.559922,1.111006,1.5229343,-0.7542831
-0.45407864,-0.038772784,0.47833672,-1.3847357,-1.097873,-0.6700018,0.08637264,0.22242874,0.96724087,-0.935605,1.3748981,1.0931906,1.559922,1.111006,1.5229343,-0.7542831
-0.45407864,-0.038772784,0.47833672,-1.3847357,-1.097873,-0.6700018,0.08637264,0.22242874,0.96724087,-0.935605,1.3748981,1.0931906,1.559922,1.111006,1.5229343,-0.7542831
0.12885298,0.62883157,-0.38087612,0.5166793,-0.5695281,-0.26195383,-0.41874063,-0.56984806,0.9381709,-0.935605,1.315602,1.0931906,1.5241535,1.111006,1.4851383,-0.7542831
-0.2597681,-1.7077836,-0.9945996,0.87885356,0.48716167,0.35011816,0.21265097,0.486521,0.9381709,-0.935605,1.315602,1.0931906,1.5241535,1.111006,1.4851383,-0.7542831
0.32316354,0.7957326,-0.62636554,-0.6603871,-1.097873,-0.46597782,-0.039905675,-0.04166352,0.9381709,-0.935605,1.315602,1.0931906,1.5241535,1.111006,1.4851383,-0.7542831
0.32316354,0.7957326,-0.62636554,-0.6603871,-1.097873,-0.46597782,-0.039905675,-0.04166352,0.9381709,-0.935605,1.315602,1.0931906,1.5241535,1.111006,1.4851383,-0.7542831
0.32316354,-0.7063771,-0.13538675,-0.47929996,0.48716167,0.35011816,0.08637264,0.22242874,0.9381709,-0.935605,1.315602,1.0931906,1.5241535,1.111006,1.4851383,-0.7542831
0.32316354,-0.7063771,-0.13538675,-0.47929996,0.48716167,0.35011816,0.08637264,0.22242874,0.85096115,-0.9002049,1.2563057,1.0931906,1.4526165,1.111006,1.4095464,-0.7542831
0.12885298,-0.7063771,-0.6877379,-0.20766926,0.3110467,0.14609417,-0.166184,-0.04166352,0.85096115,-0.9002049,1.2563057,1.0931906,1.4526165,1.111006,1.4095464,-0.7542831
0.12885298,-0.7063771,-0.6877379,-0.20766926,0.3110467,0.14609417,-0.166184,-0.04166352,0.85096115,-0.9002049,1.2563057,1.0931906,1.4526165,1.111006,1.4095464,-0.7542831
0.12885298,-0.7063771,-0.6877379,-0.20766926,0.3110467,0.14609417,-0.166184,-0.04166352,0.85096115,-0.9002049,1.2563057,1.0931906,1.4526165,1.111006,1.4095464,-0.7542831
1.2947162,-0.20567386,-0.93322724,0.5166793,-0.39341313,-0.46597782,0.08637264,-0.17370965,0.7346814,-0.9002049,1.1673615,1.013092,1.3095424,1.0156224,1.2583625,-0.7257284
0.12885298,-0.8732782,-1.3014613,0.33559215,0.3110467,0.35011816,0.08637264,0.22242874,0.7346814,-0.9002049,1.1673615,1.013092,1.3095424,1.0156224,1.2583625,-0.7257284
0.12885298,-0.8732782,-1.3014613,0.33559215,0.3110467,0.35011816,0.08637264,0.22242874,0.7346814,-0.9002049,1.1673615,1.013092,1.3095424,1.0156224,1.2583625,-0.7257284
0.51747406,0.9626337,0.29421967,-0.026582126,1.0155065,0.5541422,-0.166184,0.22242874,0.7346814,-0.9002049,1.1673615,1.013092,1.3095424,1.0156224,1.2583625,-0.7257284
-0.45407864,-1.2070804,-0.25813144,-0.84147424,-1.4501029,-0.8740258,-0.166184,-0.30575576,0.7346814,-0.9002049,1.1673615,1.013092,1.3095424,1.0156224,1.2583625,-0.7257284
-0.2597681,1.1295348,1.398922,-0.29821283,0.13493174,-0.05792983,-0.039905675,-0.17370965,0.56026185,-0.9002049,0.9894731,0.7193973,1.1664684,0.7294716,1.1071787,-0.7257284
-0.8426997,-0.038772784,-2.83577,-0.47929996,-0.39341313,-0.46597782,-0.039905675,0.09038261,0.56026185,-0.9002049,0.9894731,0.7193973,1.1664684,0.7294716,1.1071787,-0.7257284
-0.8426997,-0.038772784,-2.83577,-0.47929996,-0.39341313,-0.46597782,-0.039905675,0.09038261,0.56026185,-0.9002049,0.9894731,0.7193973,1.1664684,0.7294716,1.1071787,-0.7257284
-0.8426997,-0.038772784,-2.83577,-0.47929996,-0.39341313,-0.46597782,-0.039905675,0.09038261,0.56026185,-0.9002049,0.9894731,0.7193973,1.1664684,0.7294716,1.1071787,-0.7257284
-0.2597681,0.46193045,-0.81048256,0.60722286,0.3110467,-0.05792983,-0.41874063,-0.30575576,0.47305202,-0.9002049,0.930177,0.31890452,1.0591629,0.3240913,1.0315868,-0.7257284
0.32316354,1.463337,1.1534325,-0.56984353,-0.5695281,-0.26195383,-0.039905675,-0.04166352,0.47305202,-0.9002049,0.930177,0.31890452,1.0591629,0.3240913,1.0315868,-0.7257284
0.32316354,1.463337,1.1534325,-0.56984353,-0.5695281,-0.26195383,-0.039905675,-0.04166352,0.47305202,-0.9002049,0.930177,0.31890452,1.0591629,0.3240913,1.0315868,-0.7257284
0.32316354,0.62883157,-0.13538675,-0.56984353,-0.21729818,0.35011816,-0.039905675,0.22242874,0.47305202,-0.9002049,0.930177,0.31890452,1.0591629,0.3240913,1.0315868,-0.7257284
0.32316354,0.62883157,-0.13538675,-0.56984353,-0.21729818,0.35011816,-0.039905675,0.22242874,0.47305202,-0.9002049,0.930177,0.31890452,1.0591629,0.3240913,1.0315868,-0.7257284
0.51747406,-0.038772784,-0.81048256,-0.3887564,0.3110467,-0.05792983,-0.039905675,0.22242874,0.35677233,-0.86480486,0.78193665,-0.1082878,0.9160888,-0.15282673,0.9181989,-0.7257284
-0.45407864,0.29502937,1.0306878,0.33559215,0.13493174,0.14609417,0.08637264,-0.17370965,0.35677233,-0.86480486,0.78193665,-0.1082878,0.9160888,-0.15282673,0.9181989,-0.7257284
-0.45407864,0.29502937,1.0306878,0.33559215,0.13493174,0.14609417,0.08637264,-0.17370965,0.35677233,-0.86480486,0.78193665,-0.1082878,0.9160888,-0.15282673,0.9181989,-0.7257284
0.7117846,1.9640402,0.5397091,0.06396145,0.3110467,0.35011816,-0.039905675,-0.17370965,0.35677233,-0.86480486,0.78193665,-0.1082878,0.9160888,-0.15282673,0.9181989,-0.7257284
-0.45407864,-0.20567386,-0.19675909,-0.3887564,-0.04118322,-0.26195383,-0.039905675,-0.17370965,0.35677233,-0.86480486,0.78193665,-0.1082878,0.9160888,-0.15282673,0.9181989,-0.7257284
-0.45407864,-0.20567386,-0.19675909,-0.3887564,-0.04118322,-0.26195383,-0.039905675,-0.17370965,0.35677233,-0.86480486,0.78193665,-0.1082878,0.9160888,-0.15282673,0.9181989,-0.7257284
-0.06545755,-0.37257496,0.9079431,-0.56984353,0.48716167,0.35011816,0.3389293,0.6185671,0.35677233,-0.86480486,0.78193665,-0.1082878,0.9160888,-0.15282673,0.9181989,-0.7257284
-0.06545755,0.9626337,1.7057836,-0.1171257,-1.2739879,-0.6700018,-0.166184,-0.30575576,0.26956254,-0.86480486,0.6633444,-0.29518443,0.8087833,-0.39128575,0.84260696,-0.7257284
-0.45407864,-2.0415857,-2.160674,-2.0185406,-1.6262178,-0.8740258,-0.29246232,-0.30575576,0.26956254,-0.86480486,0.6633444,-0.29518443,0.8087833,-0.39128575,0.84260696,-0.7257284
-0.45407864,-2.0415857,-2.160674,-2.0185406,-1.6262178,-0.8740258,-0.29246232,-0.30575576,0.26956254,-0.86480486,0.6633444,-0.29518443,0.8087833,-0.39128575,0.84260696,-0.7257284
-0.45407864,0.1281283,0.29421967,-0.29821283,-0.39341313,-1.2820739,0.3389293,0.7506133,0.26956254,-0.86480486,0.6633444,-0.29518443,0.8087833,-0.39128575,0.84260696,-0.7257284
-0.45407864,0.1281283,0.29421967,-0.29821283,-0.39341313,-1.2820739,0.3389293,0.7506133,0.21142267,-0.86480486,0.5744001,-0.40198252,0.7372463,-0.5343611,0.76701504,-0.7257284
0.32316354,-1.0401793,-0.5036208,1.8748329,-0.921758,0.35011816,-0.29246232,-0.4378019,0.21142267,-0.86480486,0.5744001,-0.40198252,0.7372463,-0.5343611,0.76701504,-0.7257284
0.12885298,-0.038772784,-1.6083231,0.24504858,0.48716167,0.14609417,-0.039905675,-0.17370965,0.21142267,-0.86480486,0.5744001,-0.40198252,0.7372463,-0.5343611,0.76701504,-0.7257284
-0.06545755,-0.038772784,0.78519845,0.24504858,0.48716167,0.14609417,-0.166184,-0.30575576,0.21142267,-0.86480486,0.5744001,-0.40198252,0.7372463,-0.5343611,0.76701504,-0.7257284
-0.06545755,-0.038772784,0.78519845,0.24504858,0.48716167,0.14609417,-0.166184,-0.30575576,0.21142267,-0.86480486,0.5744001,-0.40198252,0.7372463,-0.5343611,0.76701504,-0.7257284
-0.2597681,0.46193045,2.6877413,1.1504843,-0.04118322,-0.6700018,-0.039905675,0.09038261,0.1532828,-0.86480486,0.48545593,-0.45538154,0.62994075,-0.60589886,0.7292191,-0.7257284
-0.2597681,0.46193045,2.6877413,1.1504843,-0.04118322,-0.6700018,-0.039905675,0.09038261,0.1532828,-0.86480486,0.48545593,-0.45538154,0.62994075,-0.60589886,0.7292191,-0.7257284
-1.2313207,-4.044399,0.6624538,2.1464636,-0.921758,-0.6700018,0.3389293,0.22242874,0.1532828,-0.86480486,0.48545593,-0.45538154,0.62994075,-0.60589886,0.7292191,-0.7257284
0.12885298,-0.20567386,-0.44224846,0.60722286,-0.7456431,-0.26195383,-0.29246232,-0.04166352,0.1532828,-0.86480486,0.48545593,-0.45538154,0.62994075,-0.60589886,0.7292191,-0.7257284
0.12885298,-0.20567386,-0.44224846,0.60722286,-0.7456431,-0.26195383,-0.29246232,-0.04166352,0.1532828,-0.86480486,0.48545593,-0.45538154,0.62994075,-0.60589886,0.7292191,-0.7257284
0.7117846,1.630238,-0.19675909,1.1504843,0.13493174,-0.46597782,0.3389293,0.09038261,0.06607302,-0.82940483,0.39651173,-0.5087806,0.4868667,-0.70128244,0.65362716,-0.7257284
0.51747406,0.1281283,0.5397091,-0.29821283,-0.21729818,0.5541422,-0.166184,-0.30575576,0.06607302,-0.82940483,0.39651173,-0.5087806,0.4868667,-0.70128244,0.65362716,-0.7257284
0.51747406,0.1281283,0.5397091,-0.29821283,-0.21729818,0.5541422,-0.166184,-0.30575576,0.06607302,-0.82940483,0.39651173,-0.5087806,0.4868667,-0.70128244,0.65362716,-0.7257284
0.12885298,0.62883157,0.23284733,-0.56984353,0.6632766,0.14609417,-0.039905675,-0.04166352,0.06607302,-0.82940483,0.39651173,-0.5087806,0.4868667,-0.70128244,0.65362716,-0.7257284
0.12885298,0.62883157,0.23284733,-0.56984353,0.6632766,0.14609417,-0.039905675,-0.04166352,-0.021136768,-0.82940483,0.27791944,-0.5354801,0.3795612,-0.74897426,0.57803524,-0.7257284
0.12885298,0.1281283,1.4602942,0.42613572,-0.7456431,-0.26195383,-0.41874063,-0.30575576,-0.021136768,-0.82940483,0.27791944,-0.5354801,0.3795612,-0.74897426,0.57803524,-0.7257284
-0.06545755,-0.038772784,-0.13538675,-1.3847357,0.13493174,0.7581662,-0.039905675,0.35447487,-0.021136768,-0.82940483,0.27791944,-0.5354801,0.3795612,-0.74897426,0.57803524,-0.7257284
-0.06545755,-0.038772784,-0.13538675,-1.3847357,0.13493174,0.7581662,-0.039905675,0.35447487,-0.021136768,-0.82940483,0.27791944,-0.5354801,0.3795612,-0.74897426,0.57803524,-0.7257284
-0.06545755,-0.038772784,-0.13538675,-1.3847357,0.13493174,0.7581662,-0.039905675,0.35447487,-0.021136768,-0.82940483,0.27791944,-0.5354801,0.3795612,-0.74897426,0.57803524,-0.7257284
0.32316354,1.630238,1.2148049,-2.1090841,-1.6262178,-1.0780498,-0.039905675,-0.04166352,-0.10834656,-0.82940483,0.15932716,-0.5354801,0.20071866,-0.82051194,0.5024433,-0.7257284
0.32316354,1.630238,1.2148049,-2.1090841,-1.6262178,-1.0780498,-0.039905675,-0.04166352,-0.10834656,-0.82940483,0.15932716,-0.5354801,0.20071866,-0.82051194,0.5024433,-0.7257284
-0.45407864,0.29502937,0.35559204,0.9693971,0.13493174,0.5541422,-0.166184,-0.17370965,-0.10834656,-0.82940483,0.15932716,-0.5354801,0.20071866,-0.82051194,0.5024433,-0.7257284
0.12885298,-0.37257496,-0.7491102,-0.6603871,0.13493174,0.35011816,-0.166184,0.22242874,-0.10834656,-0.82940483,0.15932716,-0.5354801,0.20071866,-0.82051194,0.5024433,-0.7257284
0.12885298,-0.37257496,-0.7491102,-0.6603871,0.13493174,0.35011816,-0.166184,0.22242874,-0.10834656,-0.82940483,0.15932716,-0.5354801,0.20071866,-0.82051194,0.5024433,-0.7257284
0.12885298,-0.37257496,-0.7491102,-0.6603871,0.13493174,0.35011816,-0.166184,0.22242874,-0.19555634,-0.82940483,0.040734887,-0.5621796,0.09341313,-0.86820376,0.38905543,-0.7542831
-0.2597681,-0.20567386,-0.62636554,-0.3887564,-0.04118322,0.14609417,0.21265097,0.22242874,-0.19555634,-0.82940483,0.040734887,-0.5621796,0.09341313,-0.86820376,0.38905543,-0.7542831
-0.2597681,-0.20567386,-0.62636554,-0.3887564,-0.04118322,0.14609417,0.21265097,0.22242874,-0.19555634,-0.82940483,0.040734887,-0.5621796,0.09341313,-0.86820376,0.38905543,-0.7542831
-0.2597681,-0.038772784,-1.4855784,-0.75093067,0.13493174,-0.05792983,-0.039905675,0.35447487,-0.19555634,-0.82940483,0.040734887,-0.5621796,0.09341313,-0.86820376,0.38905543,-0.7542831
-0.2597681,0.46193045,-0.074014395,1.6032021,0.3110467,0.35011816,-0.166184,-0.30575576,-0.22462627,-0.82940483,-0.018561251,-0.58887917,0.021876115,-0.9158955,0.3134635,-0.7542831
-0.2597681,0.46193045,-0.074014395,1.6032021,0.3110467,0.35011816,-0.166184,-0.30575576,-0.22462627,-0.82940483,-0.018561251,-0.58887917,0.021876115,-0.9158955,0.3134635,-0.7542831
0.51747406,0.46193045,-0.25813144,0.24504858,-0.04118322,-0.05792983,-0.039905675,-0.04166352,-0.22462627,-0.82940483,-0.018561251,-0.58887917,0.021876115,-0.9158955,0.3134635,-0.7542831
0.32316354,0.46193045,-0.19675909,0.24504858,0.6632766,0.96219015,0.08637264,-0.30575576,-0.22462627,-0.82940483,-0.018561251,-0.58887917,0.021876115,-0.9158955,0.3134635,-0.7542831
0.32316354,0.46193045,-0.19675909,0.24504858,0.6632766,0.96219015,0.08637264,-0.30575576,-0.22462627,-0.82940483,-0.018561251,-0.58887917,0.021876115,-0.9158955,0.3134635,-0.7542831
0.32316354,0.1281283,1.398922,0.5166793,-0.04118322,0.35011816,-0.039905675,-0.4378019,-0.28276613,-0.82940483,-0.13715354,-0.61557865,-0.08542941,-0.96358734,0.23787159,-0.7828378
0.12885298,-0.53947604,0.23284733,0.33559215,-0.5695281,-0.26195383,0.21265097,0.35447487,-0.28276613,-0.82940483,-0.13715354,-0.61557865,-0.08542941,-0.96358734,0.23787159,-0.7828378
0.12885298,-0.53947604,0.23284733,0.33559215,-0.5695281,-0.26195383,0.21265097,0.35447487,-0.28276613,-0.82940483,-0.13715354,-0.61557865,-0.08542941,-0.96358734,0.23787159,-0.7828378
0.32316354,0.29502937,0.5397091,0.6977664,0.48716167,-0.26195383,-0.039905675,-0.17370965,-0.28276613,-0.82940483,-0.13715354,-0.61557865,-0.08542941,-0.96358734,0.23787159,-0.7828378
0.32316354,0.29502937,0.5397091,0.6977664,0.48716167,-0.26195383,-0.039905675,-0.17370965,-0.28276613,-0.82940483,-0.13715354,-0.61557865,-0.08542941,-0.96358734,0.23787159,-0.7828378
1.2947162,-0.53947604,-1.5469507,0.33559215,-0.39341313,-0.46597782,-0.039905675,-0.04166352,-0.28276613,-0.82940483,-0.13715354,-0.61557865,-0.08542941,-0.96358734,0.23787159,-0.7828378
-0.06545755,0.1281283,1.8899007,0.6977664,0.3110467,-0.46597782,0.21265097,-0.04166352,-0.36997592,-0.82940483,-0.19644967,-0.6689777,-0.19273493,-1.0112791,0.1244837,-0.7828378
0.51747406,0.29502937,0.60108143,0.87885356,0.3110467,0.7581662,-0.166184,-0.04166352,-0.36997592,-0.82940483,-0.19644967,-0.6689777,-0.19273493,-1.0112791,0.1244837,-0.7828378
0.51747406,0.29502937,0.60108143,0.87885356,0.3110467,0.7581662,-0.166184,-0.04166352,-0.36997592,-0.82940483,-0.19644967,-0.6689777,-0.19273493,-1.0112791,0.1244837,-0.7828378
-0.2597681,-0.8732782,-1.3628336,0.33559215,-0.04118322,-0.8740258,-0.166184,0.09038261,-0.36997592,-0.82940483,-0.19644967,-0.6689777,-0.19273493,-1.0112791,0.1244837,-0.7828378
-0.2597681,-0.8732782,-1.3628336,0.33559215,-0.04118322,-0.8740258,-0.166184,0.09038261,-0.4281158,-0.86480486,-0.2853939,-0.72237676,-0.30004045,-1.0589709,0.011095813,-0.8113925
0.12885298,1.2964358,1.8899007,0.42613572,-0.5695281,0.14609417,-0.039905675,0.09038261,-0.4281158,-0.86480486,-0.2853939,-0.72237676,-0.30004045,-1.0589709,0.011095813,-0.8113925
0.12885298,1.2964358,1.8899007,0.42613572,-0.5695281,0.14609417,-0.039905675,0.09038261,-0.4281158,-0.86480486,-0.2853939,-0.72237676,-0.30004045,-1.0589709,0.011095813,-0.8113925
-0.06545755,-0.20567386,-1.4855784,-2.5618021,-0.7456431,-0.46597782,0.08637264,0.22242874,-0.4281158,-0.86480486,-0.2853939,-0.72237676,-0.30004045,-1.0589709,0.011095813,-0.8113925
-0.06545755,-0.20567386,-1.4855784,-2.5618021,-0.7456431,-0.46597782,0.08637264,0.22242874,-0.4281158,-0.86480486,-0.2853939,-0.72237676,-0.30004045,-1.0589709,0.011095813,-0.8113925
-0.2597681,1.2964358,0.7238261,2.1464636,-0.04118322,-0.05792983,-0.039905675,-0.17370965,-0.4281158,-0.86480486,-0.2853939,-0.72237676,-0.30004045,-1.0589709,0.011095813,-0.8113925
1.1004057,2.2978423,1.398922,1.3315715,0.6632766,0.5541422,-0.166184,-0.04166352,-0.45718572,-0.86480486,-0.31504196,-0.7757758,-0.33580896,-1.1066628,-0.026700148,-0.8113925
-0.06545755,0.1281283,-0.25813144,-0.56984353,-0.5695281,-0.6700018,-0.039905675,-0.04166352,-0.45718572,-0.86480486,-0.31504196,-0.7757758,-0.33580896,-1.1066628,-0.026700148,-0.8113925
0.51747406,1.1295348,0.8465708,-0.1171257,-0.21729818,0.14609417,0.21265097,0.09038261,-0.45718572,-0.86480486,-0.31504196,-0.7757758,-0.33580896,-1.1066628,-0.026700148,-0.8113925
-0.2597681,-0.038772784,-0.13538675,-0.026582126,-0.04118322,0.14609417,0.08637264,0.22242874,-0.45718572,-0.86480486,-0.31504196,-0.7757758,-0.33580896,-1.1066628,-0.026700148,-0.8113925
-0.2597681,-0.038772784,-0.13538675,-0.026582126,-0.04118322,0.14609417,0.08637264,0.22242874,-0.45718572,-0.86480486,-0.34469002,-0.8024753,-0.37157747,-1.1066628,-0.06449611,-0.7828378
0.12885298,-0.7063771,-1.1173443,-0.84147424,1.0155065,0.7581662,0.08637264,0.09038261,-0.45718572,-0.86480486,-0.34469002,-0.8024753,-0.37157747,-1.1066628,-0.06449611,-0.7828378
0.12885298,-0.7063771,-1.1173443,-0.84147424,1.0155065,0.7581662,0.08637264,0.09038261,-0.45718572,-0.86480486,-0.34469002,-0.8024753,-0.37157747,-1.1066628,-0.06449611,-0.7828378
-0.06545755,-1.3739815,-0.62636554,0.24504858,-0.04118322,0.35011816,0.21265097,0.09038261,-0.45718572,-0.86480486,-0.34469002,-0.8024753,-0.37157747,-1.1066628,-0.06449611,-0.7828378
0.51747406,1.2964358,1.5830389,-1.2036486,0.3110467,0.35011816,-0.039905675,0.09038261,-0.45718572,-0.86480486,-0.34469002,-0.8024753,-0.37157747,-1.1066628,-0.06449611,-0.7828378
-0.64838916,-0.038772784,-2.283419,-1.4752792,-0.5695281,-0.46597782,-0.039905675,-0.30575576,-0.51532555,-0.86480486,-0.3743381,-0.8024753,-0.4431145,-1.1066628,-0.10229207,-0.7828378
-0.64838916,-0.038772784,-2.283419,-1.4752792,-0.5695281,-0.46597782,-0.039905675,-0.30575576,-0.51532555,-0.86480486,-0.3743381,-0.8024753,-0.4431145,-1.1066628,-0.10229207,-0.7828378
0.32316354,0.46193045,0.5397091,1.2410278,0.48716167,-0.05792983,-0.039905675,0.22242874,-0.51532555,-0.86480486,-0.3743381,-0.8024753,-0.4431145,-1.1066628,-0.10229207,-0.7828378
0.32316354,0.46193045,0.5397091,1.2410278,0.48716167,-0.05792983,-0.039905675,0.22242874,-0.51532555,-0.86480486,-0.3743381,-0.8024753,-0.4431145,-1.1066628,-0.10229207,-0.7828378
0.32316354,0.9626337,1.8899007,0.9693971,0.8393916,0.7581662,0.08637264,0.486521,-0.51532555,-0.86480486,-0.3743381,-0.8024753,-0.4431145,-1.1066628,-0.10229207,-0.7828378
0.32316354,0.1281283,-1.5469507,-0.1171257,-0.04118322,-0.26195383,-0.039905675,-0.04166352,-0.0032489134,0.032763693,-0.90975034,-0.03774095,-0.8351425,-0.47591236,-0.8750516,0.42041227
0.32316354,0.1281283,-1.5469507,-0.1171257,-0.04118322,-0.26195383,-0.039905675,-0.04166352,-0.0032489134,0.032763693,-0.90975034,-0.03774095,-0.8351425,-0.47591236,-0.8750516,0.42041227
0.12885298,-0.038772784,0.110102646,0.6977664,-0.21729818,-0.05792983,0.21265097,-0.04166352,-0.0032489134,-0.0026363628,-0.90975034,-0.03774095,-0.870911,-0.47591236,-0.8750516,0.42041227
0.12885298,-0.038772784,0.110102646,0.6977664,-0.21729818,-0.05792983,0.21265097,-0.04166352,-0.0032489134,-0.0026363628,-0.90975034,-0.03774095,-0.870911,-0.47591236,-0.8750516,0.42041227
0.12885298,-0.038772784,0.110102646,0.6977664,-0.21729818,-0.05792983,0.21265097,-0.04166352,-0.0032489134,-0.0026363628,-0.90975034,-0.03774095,-0.870911,-0.47591236,-0.8750516,0.42041227
0.51747406,0.9626337,-0.19675909,-0.84147424,-0.21729818,0.5541422,-0.039905675,0.22242874,-0.0032489134,-0.0026363628,-0.90975034,-0.03774095,-0.870911,-0.47591236,-0.8750516,0.42041227
-0.2597681,-0.038772784,0.5397091,-0.20766926,-0.5695281,0.35011816,0.21265097,0.09038261,-0.0032489134,0.032763693,-0.90975034,-0.06444047,-0.8351425,-0.47591236,-0.8750516,0.42041227
-0.2597681,-0.038772784,0.5397091,-0.20766926,-0.5695281,0.35011816,0.21265097,0.09038261,-0.0032489134,0.032763693,-0.90975034,-0.06444047,-0.8351425,-0.47591236,-0.8750516,0.42041227
-0.06545755,-0.20567386,0.23284733,0.5166793,0.13493174,-0.26195383,-0.039905675,0.09038261,-0.0032489134,0.032763693,-0.90975034,-0.06444047,-0.8351425,-0.47591236,-0.8750516,0.42041227
-0.06545755,-0.37257496,-0.13538675,0.24504858,0.48716167,0.35011816,0.08637264,-0.17370965,-0.0032489134,0.032763693,-0.90975034,-0.06444047,-0.8351425,-0.47591236,-0.8750516,0.42041227
-0.06545755,-0.53947604,-0.13538675,0.15450501,0.3110467,-0.46597782,-0.039905675,-0.04166352,-0.0032489134,0.032763693,-0.90975034,-0.06444047,-0.8351425,-0.47591236,-0.8750516,0.42041227
-0.2597681,0.1281283,-0.13538675,0.42613572,0.3110467,0.14609417,-0.039905675,0.09038261,-0.0032489134,0.032763693,-0.90975034,-0.06444047,-0.8351425,-0.47591236,-0.8750516,0.42041227
0.12885298,0.29502937,1.2148049,0.15450501,1.0155065,0.7581662,0.08637264,0.22242874,-0.0032489134,0.032763693,-0.90975034,-0.06444047,-0.8351425,-0.47591236,-0.8750516,0.42041227
0.12885298,0.29502937,1.2148049,0.15450501,1.0155065,0.7581662,0.08637264,0.22242874,-0.0032489134,-0.0026363628,-0.90975034,-0.06444047,-0.8351425,-0.47591236,-0.9128476,0.42041227
0.12885298,0.29502937,1.2148049,0.15450501,1.0155065,0.7581662,0.08637264,0.22242874,-0.0032489134,-0.0026363628,-0.90975034,-0.06444047,-0.8351425,-0.47591236,-0.9128476,0.42041227
-0.06545755,-0.53947604,-2.0993018,-0.84147424,-0.04118322,-0.26195383,0.08637264,0.09038261,-0.0032489134,-0.0026363628,-0.90975034,-0.06444047,-0.8351425,-0.47591236,-0.9128476,0.42041227
0.12885298,-0.20567386,-0.9945996,0.42613572,-0.04118322,-0.26195383,0.08637264,-0.04166352,-0.0032489134,-0.0026363628,-0.90975034,-0.06444047,-0.8351425,-0.47591236,-0.9128476,0.42041227
0.12885298,-0.20567386,-0.9945996,0.42613572,-0.04118322,-0.26195383,0.08637264,-0.04166352,-0.0032489134,0.032763693,-0.90975034,-0.03774095,-0.8351425,-0.47591236,-0.9128476,0.42041227
-0.06545755,0.29502937,-0.19675909,-0.3887564,-0.04118322,-0.46597782,0.21265097,-0.04166352,-0.0032489134,0.032763693,-0.90975034,-0.03774095,-0.8351425,-0.47591236,-0.9128476,0.42041227
-0.06545755,0.29502937,-0.19675909,-0.3887564,-0.04118322,-0.46597782,0.21265097,-0.04166352,-0.0032489134,0.032763693,-0.90975034,-0.03774095,-0.8351425,-0.47591236,-0.9128476,0.42041227
-0.64838916,0.1281283,0.048730295,0.33559215,0.3110467,0.14609417,-0.039905675,-0.04166352,-0.0032489134,0.032763693,-0.90975034,-0.03774095,-0.8351425,-0.47591236,-0.9128476,0.42041227
-0.64838916,0.1281283,0.048730295,0.33559215,0.3110467,0.14609417,-0.039905675,-0.04166352,-0.0032489134,0.032763693,-0.90975034,-0.03774095,-0.8351425,-0.47591236,-0.9128476,0.42041227
-0.2597681,-1.5408825,-0.44224846,-0.026582126,0.13493174,-0.05792983,-0.039905675,0.09038261,-0.0032489134,0.032763693,-0.93939847,-0.03774095,-0.8351425,-0.45206648,-0.8750516,0.42041227
-0.2597681,-1.5408825,-0.44224846,-0.026582126,0.13493174,-0.05792983,-0.039905675,0.09038261,-0.0032489134,0.032763693,-0.93939847,-0.03774095,-0.8351425,-0.45206648,-0.8750516,0.42041227
-0.2597681,0.7957326,-0.01264205,0.15450501,-0.5695281,-0.46597782,0.21265097,-0.17370965,-0.0032489134,0.032763693,-0.93939847,-0.03774095,-0.8351425,-0.45206648,-0.8750516,0.42041227
0.12885298,-0.8732782,-0.31950378,-0.20766926,0.3110467,0.5541422,-0.039905675,-0.04166352,-0.0032489134,0.032763693,-0.93939847,-0.03774095,-0.8351425,-0.45206648,-0.8750516,0.42041227
0.12885298,0.7957326,-0.38087612,-0.1171257,0.13493174,0.14609417,-0.29246232,-0.17370965,-0.0032489134,0.032763693,-0.93939847,-0.03774095,-0.8351425,-0.45206648,-0.8750516,0.42041227
0.12885298,0.7957326,-0.38087612,-0.1171257,0.13493174,0.14609417,-0.29246232,-0.17370965,-0.0032489134,-0.0026363628,-0.90975034,-0.03774095,-0.8351425,-0.45206648,-0.9128476,0.42041227
-0.06545755,-0.37257496,-0.5036208,0.5166793,0.3110467,-0.26195383,-0.039905675,0.09038261,-0.0032489134,-0.0026363628,-0.90975034,-0.03774095,-0.8351425,-0.45206648,-0.9128476,0.42041227
-0.06545755,-0.37257496,-0.5036208,0.5166793,0.3110467,-0.26195383,-0.039905675,0.09038261,-0.0032489134,-0.0026363628,-0.90975034,-0.03774095,-0.8351425,-0.45206648,-0.9128476,0.42041227
-0.06545755,1.2964358,2.442252,-0.84147424,-1.2739879,-0.26195383,-0.039905675,0.22242874,-0.0032489134,-0.0026363628,-0.90975034,-0.03774095,-0.8351425,-0.45206648,-0.9128476,0.42041227
-0.06545755,1.2964358,2.442252,-0.84147424,-1.2739879,-0.26195383,-0.039905675,0.22242874,-0.0032489134,-0.0026363628,-0.90975034,-0.03774095,-0.8351425,-0.45206648,-0.9128476,0.42041227
-0.2597681,0.1281283,-0.38087612,-0.47929996,0.48716167,0.14609417,-0.039905675,-0.04166352,-0.0032489134,-0.0026363628,-0.90975034,-0.03774095,-0.8351425,-0.45206648,-0.9128476,0.42041227
-0.2597681,0.1281283,-0.38087612,-0.47929996,0.48716167,0.14609417,-0.039905675,-0.04166352,-0.0032489134,-0.0026363628,-0.90975034,-0.03774095,-0.8351425,-0.45206648,-0.9128476,0.42041227
0.51747406,-0.20567386,-2.0993018,-0.20766926,-0.04118322,-0.26195383,0.21265097,0.22242874,-0.0032489134,-0.0026363628,-0.90975034,-0.03774095,-0.8351425,-0.45206648,-0.9128476,0.42041227
0.12885298,-0.37257496,0.110102646,0.33559215,1.0155065,-0.05792983,-0.039905675,-0.04166352,-0.0032489134,-0.0026363628,-0.90975034,-0.03774095,-0.8351425,-0.45206648,-0.9128476,0.42041227
0.12885298,0.1281283,1.8899007,0.5166793,-0.04118322,0.35011816,-0.039905675,-0.04166352,-0.0032489134,-0.0026363628,-0.90975034,-0.03774095,-0.8351425,-0.45206648,-0.9128476,0.42041227
0.12885298,0.1281283,1.8899007,0.5166793,-0.04118322,0.35011816,-0.039905675,-0.04166352,-0.0032489134,-0.0026363628,-0.90975034,-0.03774095,-0.8351425,-0.45206648,-0.9128476,0.42041227
0.12885298,0.9626337,-0.13538675,0.33559215,0.13493174,0.14609417,-0.039905675,0.09038261,-0.0032489134,0.032763693,-0.93939847,-0.03774095,-0.8351425,-0.47591236,-0.8750516,0.42041227
0.12885298,0.9626337,-0.13538675,0.33559215,0.13493174,0.14609417,-0.039905675,0.09038261,-0.0032489134,0.032763693,-0.93939847,-0.03774095,-0.8351425,-0.47591236,-0.8750516,0.42041227
-0.06545755,-1.0401793,-1.055972,-0.026582126,-0.921758,-0.05792983,-0.166184,-0.30575576,-0.0032489134,0.032763693,-0.93939847,-0.03774095,-0.8351425,-0.47591236,-0.8750516,0.42041227
-0.06545755,-0.37257496,-1.3628336,1.1504843,-0.39341313,0.14609417,0.21265097,0.22242874,-0.0032489134,0.032763693,-0.93939847,-0.03774095,-0.8351425,-0.47591236,-0.8750516,0.42041227
-0.06545755,-0.37257496,-1.3628336,1.1504843,-0.39341313,0.14609417,0.21265097,0.22242874,-0.0032489134,-0.0026363628,-0.93939847,-0.03774095,-0.8351425,-0.47591236,-0.8750516,0.42041227
-0.06545755,-0.038772784,0.8465708,-0.20766926,0.13493174,-0.05792983,-0.166184,-0.17370965,-0.0032489134,-0.0026363628,-0.93939847,-0.03774095,-0.8351425,-0.47591236,-0.8750516,0.42041227
-0.06545755,-0.038772784,0.8465708,-0.20766926,0.13493174,-0.05792983,-0.166184,-0.17370965,-0.0032489134,-0.0026363628,-0.93939847,-0.03774095,-0.8351425,-0.47591236,-0.8750516,0.42041227
-0.06545755,-0.038772784,-0.31950378,-0.3887564,0.13493174,-0.05792983,-0.039905675,-0.30575576,-0.0032489134,-0.0026363628,-0.93939847,-0.03774095,-0.8351425,-0.47591236,-0.8750516,0.42041227
0.12885298,-0.038772784,0.23284733,-1.0225614,0.13493174,0.7581662,0.08637264,0.22242874,-0.0032489134,-0.0026363628,-0.93939847,-0.03774095,-0.8351425,-0.47591236,-0.8750516,0.42041227
0.51747406,0.29502937,0.7238261,0.15450501,-0.21729818,-0.05792983,-0.039905675,0.09038261,-0.0032489134,0.032763693,-0.90975034,-0.03774095,-0.8351425,-0.45206648,-0.8750516,0.42041227
-0.2597681,0.62883157,-1.1173443,0.5166793,-0.21729818,-0.26195383,-0.29246232,-0.17370965,-0.0032489134,0.032763693,-0.90975034,-0.03774095,-0.8351425,-0.45206648,-0.8750516,0.42041227
0.32316354,-0.8732782,0.60108143,-0.47929996,1.5438514,0.35011816,0.08637264,0.22242874,-0.0032489134,0.032763693,-0.90975034,-0.03774095,-0.8351425,-0.45206648,-0.8750516,0.42041227
0.32316354,-0.8732782,0.60108143,-0.47929996,1.5438514,0.35011816,0.08637264,0.22242874,-0.0032489134,0.032763693,-0.90975034,-0.03774095,-0.8351425,-0.45206648,-0.8750516,0.42041227
0.32316354,-0.8732782,0.60108143,-0.47929996,1.5438514,0.35011816,0.08637264,0.22242874,-0.0032489134,0.032763693,-0.90975034,-0.03774095,-0.8351425,-0.45206648,-0.8750516,0.42041227
-0.06545755,0.1281283,2.5036242,-0.56984353,-0.5695281,-0.05792983,0.08637264,0.09038261,-0.0032489134,-0.0026363628,-0.90975034,-0.03774095,-0.8351425,-0.47591236,-0.9128476,0.42041227
0.12885298,-0.37257496,-0.7491102,-0.29821283,1.0155065,0.7581662,0.08637264,-0.04166352,-0.0032489134,-0.0026363628,-0.90975034,-0.03774095,-0.8351425,-0.47591236,-0.9128476,0.42041227
-0.2597681,-0.038772784,-0.8718549,-0.6603871,-0.921758,-0.26195383,0.08637264,-0.30575576,-0.0032489134,-0.0026363628,-0.90975034,-0.03774095,-0.8351425,-0.47591236,-0.9128476,0.42041227
0.12885298,0.1281283,-0.31950378,0.5166793,0.48716167,-0.05792983,-0.166184,-0.04166352,-0.0032489134,-0.0026363628,-0.90975034,-0.03774095,-0.8351425,-0.47591236,-0.9128476,0.42041227
0.12885298,0.1281283,-0.31950378,0.5166793,0.48716167,-0.05792983,-0.166184,-0.04166352,-0.0032489134,0.032763693,-0.90975034,-0.03774095,-0.8351425,-0.45206648,-0.9128476,0.42041227
0.12885298,0.1281283,-0.31950378,0.5166793,0.48716167,-0.05792983,-0.166184,-0.04166352,-0.0032489134,0.032763693,-0.90975034,-0.03774095,-0.8351425,-0.45206648,-0.9128476,0.42041227
0.12885298,0.1281283,-0.31950378,0.5166793,0.48716167,-0.05792983,-0.166184,-0.04166352,-0.0032489134,0.032763693,-0.90975034,-0.03774095,-0.8351425,-0.45206648,-0.9128476,0.42041227
0.12885298,1.1295348,0.171475,-0.56984353,-0.21729818,-0.05792983,-0.039905675,-0.04166352,-0.0032489134,0.032763693,-0.90975034,-0.03774095,-0.8351425,-0.45206648,-0.9128476,0.42041227
0.12885298,1.1295348,0.171475,-0.56984353,-0.21729818,-0.05792983,-0.039905675,-0.04166352,-0.0032489134,0.032763693,-0.90975034,-0.03774095,-0.8351425,-0.45206648,-0.9128476,0.42041227
-0.2597681,-0.8732782,0.048730295,1.5126586,1.0155065,0.5541422,0.08637264,0.09038261,-0.0032489134,0.032763693,-0.90975034,-0.03774095,-0.8351425,-0.45206648,-0.9128476,0.42041227
-0.2597681,-0.8732782,0.048730295,1.5126586,1.0155065,0.5541422,0.08637264,0.09038261,-0.0032489134,0.032763693,-0.90975034,-0.03774095,-0.8351425,-0.45206648,-0.9128476,0.42041227
-0.45407864,-0.038772784,-0.31950378,-0.1171257,-0.04118322,-0.8740258,0.08637264,-0.17370965,0.025821017,0.032763693,-0.93939847,-0.03774095,-0.8351425,-0.47591236,-0.8750516,0.42041227
0.12885298,-0.7063771,-0.19675909,0.5166793,-0.5695281,-0.46597782,-0.166184,-0.17370965,0.025821017,0.032763693,-0.93939847,-0.03774095,-0.8351425,-0.47591236,-0.8750516,0.42041227
0.12885298,-0.7063771,-0.19675909,0.5166793,-0.5695281,-0.46597782,-0.166184,-0.17370965,0.025821017,0.032763693,-0.93939847,-0.03774095,-0.8351425,-0.47591236,-0.8750516,0.42041227
0.12885298,-0.20567386,1.0920602,1.3315715,0.13493174,-0.26195383,-0.29246232,-0.17370965,0.025821017,0.032763693,-0.93939847,-0.03774095,-0.8351425,-0.47591236,-0.8750516,0.42041227
-0.06545755,0.46193045,1.0306878,-1.0225614,-0.5695281,0.14609417,-0.166184,-0.17370965,-0.0032489134,-0.0026363628,-0.90975034,-0.03774095,-0.8351425,-0.45206648,-0.9128476,0.42041227
-0.06545755,0.62883157,2.0126455,-0.47929996,0.3110467,0.35011816,0.08637264,0.22242874,-0.0032489134,-0.0026363628,-0.90975034,-0.03774095,-0.8351425,-0.45206648,-0.9128476,0.42041227
0.12885298,-0.038772784,-1.7310678,-0.29821283,-0.04118322,0.14609417,0.08637264,0.22242874,-0.0032489134,-0.0026363628,-0.90975034,-0.03774095,-0.8351425,-0.45206648,-0.9128476,0.42041227
0.32316354,0.1281283,0.171475,0.78831,0.3110467,-0.05792983,0.21265097,0.22242874,-0.0032489134,-0.0026363628,-0.90975034,-0.03774095,-0.8351425,-0.45206648,-0.9128476,0.42041227
0.32316354,1.463337,1.3375496,-0.026582126,-0.21729818,-0.6700018,-0.29246232,-0.17370965,-0.0032489134,-0.0026363628,-0.90975034,-0.03774095,-0.8351425,-0.45206648,-0.9128476,0.42041227
0.32316354,1.463337,1.3375496,-0.026582126,-0.21729818,-0.6700018,-0.29246232,-0.17370965,-0.0032489134,0.032763693,-0.93939847,-0.03774095,-0.8351425,-0.45206648,-0.8750516,0.42041227
-0.06545755,-0.20567386,-0.01264205,0.42613572,0.3110467,-0.26195383,-0.039905675,-0.04166352,-0.0032489134,0.032763693,-0.93939847,-0.03774095,-0.8351425,-0.45206648,-0.8750516,0.42041227
-0.06545755,-0.20567386,-0.01264205,0.42613572,0.3110467,-0.26195383,-0.039905675,-0.04166352,-0.0032489134,0.032763693,-0.93939847,-0.03774095,-0.8351425,-0.45206648,-0.8750516,0.42041227
-0.2597681,-1.2070804,-0.8718549,-0.20766926,0.6632766,0.7581662,0.3389293,0.09038261,-0.0032489134,0.032763693,-0.93939847,-0.03774095,-0.8351425,-0.45206648,-0.8750516,0.42041227
-0.2597681,-1.2070804,-0.8718549,-0.20766926,0.6632766,0.7581662,0.3389293,0.09038261,-0.0032489134,0.032763693,-0.93939847,-0.03774095,-0.8351425,-0.45206648,-0.8750516,0.42041227
-0.2597681,-1.2070804,-0.8718549,-0.20766926,0.6632766,0.7581662,0.3389293,0.09038261,0.025821017,0.032763693,-0.90975034,-0.03774095,-0.8351425,-0.45206648,-0.8750516,0.42041227
0.12885298,0.29502937,-0.7491102,-0.1171257,-0.5695281,-0.8740258,-0.166184,0.09038261,0.025821017,0.032763693,-0.90975034,-0.03774095,-0.8351425,-0.45206648,-0.8750516,0.42041227
-0.06545755,-0.20567386,0.78519845,0.42613572,0.13493174,0.96219015,0.4652076,0.09038261,0.025821017,0.032763693,-0.90975034,-0.03774095,-0.8351425,-0.45206648,-0.8750516,0.42041227
-0.06545755,-0.20567386,0.78519845,0.42613572,0.13493174,0.96219015,0.4652076,0.09038261,0.025821017,0.032763693,-0.8801023,-0.03774095,-0.8351425,-0.45206648,-0.9128476,0.42041227
-0.06545755,-0.53947604,0.110102646,0.42613572,0.48716167,-0.05792983,-0.039905675,-0.04166352,0.025821017,0.032763693,-0.8801023,-0.03774095,-0.8351425,-0.45206648,-0.9128476,0.42041227
-0.06545755,-0.53947604,0.110102646,0.42613572,0.48716167,-0.05792983,-0.039905675,-0.04166352,0.025821017,0.032763693,-0.8801023,-0.03774095,-0.8351425,-0.45206648,-0.9128476,0.42041227
0.32316354,1.9640402,-1.055972,-1.4752792,-0.21729818,-0.05792983,0.21265097,-0.04166352,0.025821017,0.032763693,-0.8801023,-0.03774095,-0.8351425,-0.45206648,-0.9128476,0.42041227
-0.06545755,-0.37257496,0.110102646,0.60722286,0.48716167,0.35011816,0.08637264,0.22242874,0.025821017,0.1035638,-0.90975034,-0.01104143,-0.8351425,-0.45206648,-0.8750516,0.42041227
-0.06545755,-0.37257496,0.110102646,0.60722286,0.48716167,0.35011816,0.08637264,0.22242874,0.025821017,0.1035638,-0.90975034,-0.01104143,-0.8351425,-0.45206648,-0.8750516,0.42041227
-0.06545755,-0.37257496,0.110102646,0.60722286,0.48716167,0.35011816,0.08637264,0.22242874,0.025821017,0.1035638,-0.90975034,-0.01104143,-0.8351425,-0.45206648,-0.8750516,0.42041227
-0.06545755,-0.37257496,0.110102646,0.60722286,0.48716167,0.35011816,0.08637264,0.22242874,0.025821017,0.1035638,-0.90975034,-0.01104143,-0.8351425,-0.45206648,-0.8750516,0.42041227
-0.64838916,-0.038772784,-1.5469507,-0.1171257,-0.39341313,0.14609417,-0.29246232,-0.30575576,0.025821017,0.1035638,-0.90975034,-0.01104143,-0.8351425,-0.45206648,-0.8750516,0.42041227
-0.64838916,-0.038772784,-1.5469507,-0.1171257,-0.39341313,0.14609417,-0.29246232,-0.30575576,0.025821017,0.1035638,-0.90975034,-0.01104143,-0.8351425,-0.45206648,-0.8750516,0.42041227
0.12885298,-0.7063771,-1.3628336,-0.6603871,-0.5695281,0.14609417,0.08637264,-0.04166352,0.113030806,0.24516402,-0.7911581,0.1758552,-0.799374,-0.45206648,-0.8750516,0.42041227
0.12885298,-0.7063771,-1.3628336,-0.6603871,-0.5695281,0.14609417,0.08637264,-0.04166352,0.113030806,0.24516402,-0.7911581,0.1758552,-0.799374,-0.45206648,-0.8750516,0.42041227
0.12885298,0.1281283,1.9512731,0.42613572,-0.5695281,-0.26195383,0.08637264,-0.30575576,0.113030806,0.24516402,-0.7911581,0.1758552,-0.799374,-0.45206648,-0.8750516,0.42041227
-0.06545755,-0.37257496,-0.38087612,-0.1171257,-0.04118322,-0.6700018,-0.166184,-0.30575576,0.113030806,0.24516402,-0.7911581,0.1758552,-0.799374,-0.45206648,-0.8750516,0.42041227
-0.06545755,-0.37257496,-0.38087612,-0.1171257,-0.04118322,-0.6700018,-0.166184,-0.30575576,0.113030806,0.24516402,-0.7911581,0.1758552,-0.799374,-0.45206648,-0.8750516,0.42041227
-0.2597681,-0.20567386,0.5397091,0.15450501,0.48716167,0.5541422,0.08637264,0.09038261,0.17117067,0.3513642,-0.73186195,0.22925425,-0.7636055,-0.45206648,-0.8750516,0.44896695
-0.06545755,-0.038772784,0.110102646,0.33559215,0.13493174,0.14609417,-0.166184,0.09038261,0.17117067,0.3513642,-0.73186195,0.22925425,-0.7636055,-0.45206648,-0.8750516,0.44896695
-0.06545755,-0.038772784,0.110102646,0.33559215,0.13493174,0.14609417,-0.166184,0.09038261,0.17117067,0.3513642,-0.73186195,0.22925425,-0.7636055,-0.45206648,-0.8750516,0.44896695
-0.2597681,0.29502937,-0.19675909,-0.1171257,-0.921758,-0.05792983,0.21265097,0.22242874,0.17117067,0.3513642,-0.73186195,0.22925425,-0.7636055,-0.45206648,-0.8750516,0.44896695
-0.2597681,0.29502937,-0.19675909,-0.1171257,-0.921758,-0.05792983,0.21265097,0.22242874,0.17117067,0.3513642,-0.73186195,0.22925425,-0.7636055,-0.45206648,-0.8750516,0.44896695
-0.2597681,-1.3739815,-0.074014395,1.5126586,-1.097873,-0.26195383,-0.29246232,-0.30575576,-1.383058,-1.1549525,-1.2655272,-1.0299648,-0.65962625,-1.2525836,-0.177884,1.129156
0.32316354,0.1281283,0.171475,0.24504858,-0.21729818,0.7581662,0.08637264,0.09038261,-1.383058,-1.1549525,-1.2951753,-1.0299648,-0.65962625,-1.2525836,-0.14008804,1.1862653
-0.45407864,0.7957326,1.398922,-0.56984353,-0.921758,-0.05792983,-0.039905675,-0.30575576,-1.383058,-1.1549525,-1.2951753,-1.0299648,-0.65962625,-1.2525836,-0.14008804,1.1862653
-0.8426997,-0.53947604,0.8465708,1.5126586,0.8393916,-0.26195383,0.21265097,0.09038261,-1.383058,-1.1549525,-1.2951753,-1.0299648,-0.65962625,-1.2525836,-0.14008804,1.1862653
-0.8426997,-0.53947604,0.8465708,1.5126586,0.8393916,-0.26195383,0.21265097,0.09038261,-1.383058,-1.1549525,-1.2951753,-1.0299648,-0.65962625,-1.2525836,-0.14008804,1.1862653
-0.06545755,-1.0401793,0.35559204,0.33559215,-0.5695281,-0.26195383,-0.166184,-0.30575576,-1.383058,-1.1549525,-1.2951753,-1.0299648,-0.65962625,-1.2525836,-0.14008804,1.1862653
0.32316354,-0.37257496,-0.31950378,-1.2941921,-0.04118322,-0.46597782,0.21265097,0.35447487,-1.3537266,-1.1549525,-1.2655272,-1.0299648,-0.62385774,-1.2525836,-0.14008804,1.2433748
-1.2313207,-0.37257496,-1.3628336,-0.1171257,-0.04118322,-0.05792983,-0.166184,-0.96598643,-1.3537266,-1.1549525,-1.2655272,-1.0299648,-0.62385774,-1.2525836,-0.14008804,1.2433748
0.32316354,-1.5408825,0.23284733,-0.20766926,-0.21729818,0.14609417,-0.039905675,-0.17370965,-1.3537266,-1.1549525,-1.2655272,-1.0299648,-0.62385774,-1.2525836,-0.14008804,1.2433748
0.32316354,-1.5408825,0.23284733,-0.20766926,-0.21729818,0.14609417,-0.039905675,-0.17370965,-1.3537266,-1.1549525,-1.2655272,-1.0299648,-0.62385774,-1.2525836,-0.14008804,1.2433748
0.32316354,-1.5408825,0.23284733,-0.20766926,-0.21729818,0.14609417,-0.039905675,-0.17370965,-1.3537266,-1.1549525,-1.2655272,-1.0299648,-0.62385774,-1.2525836,-0.14008804,1.2433748
-0.64838916,1.2964358,2.442252,0.9693971,-0.04118322,0.14609417,-0.166184,-0.4378019,-1.3537266,-1.1549525,-1.2358792,-1.0299648,-0.62385774,-1.2525836,-0.10229207,1.2719295
-0.64838916,1.2964358,2.442252,0.9693971,-0.04118322,0.14609417,-0.166184,-0.4378019,-1.3537266,-1.1549525,-1.2358792,-1.0299648,-0.62385774,-1.2525836,-0.10229207,1.2719295
0.90609515,1.9640402,0.6624538,-2.0185406,-2.6829076,-0.46597782,0.08637264,0.35447487,-1.3537266,-1.1549525,-1.2358792,-1.0299648,-0.62385774,-1.2525836,-0.10229207,1.2719295
0.32316354,2.9654467,2.5649965,1.5126586,2.0721962,0.35011816,0.08637264,-0.4378019,-1.3537266,-1.1549525,-1.2358792,-1.0299648,-0.62385774,-1.2525836,-0.10229207,1.2719295
0.32316354,-0.8732782,0.23284733,0.06396145,0.48716167,-0.05792983,0.08637264,0.09038261,-1.3537266,-1.1549525,-1.2358792,-1.0299648,-0.62385774,-1.2525836,-0.10229207,1.2719295
-0.64838916,0.1281283,-1.9151847,-2.833433,-1.4501029,-0.46597782,-0.29246232,-0.17370965,-1.3537266,-1.1549525,-1.2358792,-1.0299648,-0.62385774,-1.2525836,-0.10229207,1.2719295
-0.06545755,-0.20567386,-0.44224846,-0.47929996,0.6632766,0.35011816,0.21265097,-0.04166352,-1.3537266,-1.1549525,-1.2358792,-1.0299648,-0.62385774,-1.2525836,-0.10229207,1.2719295
-0.06545755,-0.20567386,-0.44224846,-0.47929996,0.6632766,0.35011816,0.21265097,-0.04166352,-1.3537266,-1.1549525,-1.2358792,-1.0299648,-0.5880892,-1.2287377,-0.10229207,1.3575937
0.12885298,0.7957326,-1.8538125,-0.3887564,-0.21729818,0.14609417,-0.039905675,0.09038261,-1.3537266,-1.1549525,-1.2358792,-1.0299648,-0.5880892,-1.2287377,-0.10229207,1.3575937
0.32316354,-0.8732782,-0.074014395,-1.74691,-0.5695281,-0.05792983,-0.166184,0.09038261,-1.3537266,-1.1549525,-1.2358792,-1.0299648,-0.5880892,-1.2287377,-0.10229207,1.3575937
0.32316354,-0.8732782,-0.074014395,-1.74691,-0.5695281,-0.05792983,-0.166184,0.09038261,-1.3537266,-1.1549525,-1.2358792,-1.0299648,-0.5880892,-1.2287377,-0.10229207,1.3575937
0.32316354,-0.8732782,-0.074014395,-1.74691,-0.5695281,-0.05792983,-0.166184,0.09038261,-1.3537266,-1.1549525,-1.2358792,-1.0299648,-0.5880892,-1.2525836,-0.06449611,1.3575937
1.4890268,-1.0401793,1.0306878,1.422115,-0.39341313,-0.26195383,0.08637264,1.0147055,-1.3537266,-1.1549525,-1.2358792,-1.0299648,-0.5880892,-1.2525836,-0.06449611,1.3575937
-0.45407864,-0.038772784,0.41696438,2.05592,1.7199664,0.35011816,0.08637264,-0.30575576,-1.3537266,-1.1549525,-1.2358792,-1.0299648,-0.5880892,-1.2525836,-0.06449611,1.3575937
-0.45407864,-0.038772784,0.41696438,2.05592,1.7199664,0.35011816,0.08637264,-0.30575576,-1.3537266,-1.1549525,-1.2358792,-1.0299648,-0.5880892,-1.2525836,-0.06449611,1.3575937
-0.45407864,-0.038772784,0.41696438,2.05592,1.7199664,0.35011816,0.08637264,-0.30575576,-1.3537266,-1.1549525,-1.2358792,-1.0299648,-0.5880892,-1.2287377,-0.06449611,1.414703
-0.45407864,1.7971392,0.7238261,-0.29821283,-0.5695281,-0.26195383,-0.29246232,-0.30575576,-1.3537266,-1.1549525,-1.2358792,-1.0299648,-0.5880892,-1.2287377,-0.06449611,1.414703
0.12885298,-0.20567386,1.2761772,1.5126586,1.1916215,0.5541422,-0.29246232,-0.4378019,-1.3537266,-1.1549525,-1.2358792,-1.0299648,-0.5880892,-1.2287377,-0.06449611,1.414703
0.12885298,-0.20567386,1.2761772,1.5126586,1.1916215,0.5541422,-0.29246232,-0.4378019,-1.3537266,-1.1549525,-1.2358792,-1.0299648,-0.5880892,-1.2287377,-0.06449611,1.414703
0.12885298,-0.20567386,1.2761772,1.5126586,1.1916215,0.5541422,-0.29246232,-0.4378019,-1.3537266,-1.1549525,-1.2358792,-1.0299648,-0.5880892,-1.2287377,-0.06449611,1.414703
-0.2597681,0.46193045,-0.9945996,-1.8374535,0.6632766,0.5541422,-0.039905675,-0.17370965,-1.3537266,-1.1549525,-1.2358792,-1.0299648,-0.5523207,-1.2287377,-0.026700148,1.4432578
0.12885298,0.29502937,-1.7310678,-0.47929996,-1.097873,-1.2820739,-0.166184,-0.17370965,-1.3537266,-1.1549525,-1.2358792,-1.0299648,-0.5523207,-1.2287377,-0.026700148,1.4432578
0.12885298,0.29502937,-1.7310678,-0.47929996,-1.097873,-1.2820739,-0.166184,-0.17370965,-1.3537266,-1.1549525,-1.2358792,-1.0299648,-0.5523207,-1.2287377,-0.026700148,1.4432578
-0.06545755,-0.20567386,0.96931547,-0.56984353,-0.21729818,0.14609417,0.21265097,0.35447487,-1.3537266,-1.1549525,-1.2358792,-1.0299648,-0.5523207,-1.2287377,-0.026700148,1.4432578
-0.06545755,-0.20567386,0.96931547,-0.56984353,-0.21729818,0.14609417,0.21265097,0.35447487,-1.3537266,-1.1549525,-1.2358792,-1.0299648,-0.5523207,-1.2287377,-0.026700148,1.4432578
-0.06545755,-1.0401793,-0.93322724,-2.1996279,-1.2739879,-0.46597782,-0.039905675,0.09038261,-1.3537266,-1.1549525,-1.2062311,-1.0299648,-0.5523207,-1.2287377,-0.026700148,1.4718125
-0.06545755,-1.0401793,-0.93322724,-2.1996279,-1.2739879,-0.46597782,-0.039905675,0.09038261,-1.3537266,-1.1549525,-1.2062311,-1.0299648,-0.5523207,-1.2287377,-0.026700148,1.4718125
-0.64838916,-4.044399,-1.8538125,0.6977664,0.3110467,-0.26195383,-0.039905675,-0.04166352,-1.3537266,-1.1549525,-1.2062311,-1.0299648,-0.5523207,-1.2287377,-0.026700148,1.4718125
-0.64838916,-4.044399,-1.8538125,0.6977664,0.3110467,-0.26195383,-0.039905675,-0.04166352,-1.3537266,-1.1549525,-1.2062311,-1.0299648,-0.5523207,-1.2287377,-0.026700148,1.4718125
-0.06545755,-2.375388,1.1534325,2.689725,1.3677365,0.5541422,0.3389293,-0.04166352,-1.3537266,-1.1549525,-1.2358792,-1.0299648,-0.5523207,-1.2287377,0.011095813,1.5003672
-0.06545755,-2.375388,1.1534325,2.689725,1.3677365,0.5541422,0.3389293,-0.04166352,-1.3537266,-1.1549525,-1.2358792,-1.0299648,-0.5523207,-1.2287377,0.011095813,1.5003672
0.32316354,0.29502937,-0.7491102,0.33559215,-0.04118322,-0.26195383,-0.039905675,0.09038261,-1.3537266,-1.1549525,-1.2358792,-1.0299648,-0.5523207,-1.2287377,0.011095813,1.5003672
0.32316354,1.9640402,-1.1173443,-0.9320178,0.8393916,-0.05792983,-0.166184,-0.04166352,-1.3537266,-1.1549525,-1.2358792,-1.0299648,-0.5523207,-1.2287377,0.011095813,1.5003672
-0.64838916,4.3006554,1.2148049,-0.56984353,-0.21729818,0.14609417,0.08637264,-0.17370965,-1.3537266,-1.1549525,-1.2358792,-1.0299648,-0.5523207,-1.2287377,0.011095813,1.5003672
-0.64838916,4.3006554,1.2148049,-0.56984353,-0.21729818,0.14609417,0.08637264,-0.17370965,-1.3537266,-1.1549525,-1.2062311,-1.0299648,-0.5165522,-1.2287377,0.011095813,1.5289218
0.32316354,1.2964358,-0.8718549,-2.380715,-0.7456431,0.35011816,-0.166184,-0.04166352,-1.3537266,-1.1549525,-1.2062311,-1.0299648,-0.5165522,-1.2287377,0.011095813,1.5289218
0.32316354,1.2964358,-0.8718549,-2.380715,-0.7456431,0.35011816,-0.166184,-0.04166352,-1.3537266,-1.1549525,-1.2062311,-1.0299648,-0.5165522,-1.2287377,0.011095813,1.5289218
-0.06545755,2.1309414,-0.5036208,-0.3887564,0.3110467,-0.05792983,-0.039905675,0.09038261,-1.3537266,-1.1549525,-1.2062311,-1.0299648,-0.5165522,-1.2287377,0.011095813,1.5289218
0.32316354,-0.53947604,-0.7491102,1.0599407,-0.39341313,-0.26195383,-0.166184,0.35447487,-1.3537266,-1.1549525,-1.2062311,-1.0299648,-0.5165522,-1.2287377,0.011095813,1.5289218
1.1004057,0.29502937,0.41696438,1.422115,1.8960813,0.96219015,0.21265097,0.8826594,-1.3243953,-1.1549525,-1.2062311,-1.0299648,-0.5165522,-1.2287377,0.048891775,1.5289218
1.1004057,0.29502937,0.41696438,1.422115,1.8960813,0.96219015,0.21265097,0.8826594,-1.3243953,-1.1549525,-1.2062311,-1.0299648,-0.5165522,-1.2287377,0.048891775,1.5289218
0.90609515,-0.53947604,-0.62636554,0.5166793,1.0155065,0.96219015,0.08637264,0.6185671,-1.3243953,-1.1549525,-1.2062311,-1.0299648,-0.5165522,-1.2287377,0.048891775,1.5289218
0.51747406,-0.37257496,-0.13538675,-0.026582126,-0.04118322,-0.26195383,-0.29246232,0.09038261,-1.3243953,-1.1549525,-1.2062311,-1.0299648,-0.5165522,-1.2287377,0.048891775,1.5289218
0.12885298,-1.0401793,0.8465708,-0.20766926,-0.04118322,-0.26195383,-0.039905675,0.09038261,-1.3243953,-1.1549525,-1.2062311,-1.0299648,-0.5165522,-1.2287377,0.048891775,1.5289218
-0.06545755,-2.542289,-0.074014395,0.6977664,-0.7456431,-0.26195383,0.08637264,-0.04166352,-1.3243953,-1.1549525,-1.2062311,-1.0299648,-0.5165522,-1.2287377,0.048891775,1.5289218
-0.64838916,0.7957326,-0.56499314,-1.2036486,0.13493174,0.35011816,0.21265097,-0.56984806,-1.3243953,-1.1549525,-1.2062311,-1.0299648,-0.4807837,-1.2287377,0.048891775,1.5574765
-0.64838916,0.7957326,-0.56499314,-1.2036486,0.13493174,0.35011816,0.21265097,-0.56984806,-1.3243953,-1.1549525,-1.2062311,-1.0299648,-0.4807837,-1.2287377,0.048891775,1.5574765
0.51747406,0.9626337,-0.8718549,-0.026582126,0.13493174,0.5541422,-0.039905675,0.22242874,-1.3243953,-1.1549525,-1.2062311,-1.0299648,-0.4807837,-1.2287377,0.048891775,1.5574765
0.51747406,0.9626337,-0.8718549,-0.026582126,0.13493174,0.5541422,-0.039905675,0.22242874,-1.3243953,-1.1549525,-1.2062311,-1.0299648,-0.4807837,-1.2287377,0.048891775,1.5574765
-1.4256313,-5.8803105,-2.160674,0.06396145,-0.921758,-0.6700018,-0.166184,-0.56984806,-1.3243953,-1.1549525,-1.2062311,-1.0299648,-0.4807837,-1.2287377,0.048891775,1.5574765
-0.06545755,-2.542289,-1.3014613,0.24504858,-0.5695281,0.14609417,-0.29246232,-0.30575576,-1.3243953,-1.1549525,-1.2062311,-1.0299648,-0.4807837,-1.2287377,0.086687736,1.5860313
0.90609515,2.1309414,1.2148049,0.78831,-0.5695281,-0.8740258,-0.166184,0.486521,-1.3243953,-1.1549525,-1.2062311,-1.0299648,-0.4807837,-1.2287377,0.086687736,1.5860313
-0.8426997,-0.53947604,-0.8718549,-1.2036486,0.13493174,0.35011816,0.3389293,0.22242874,-1.3243953,-1.1549525,-1.2062311,-1.0299648,-0.4807837,-1.2287377,0.086687736,1.5860313
-0.64838916,-1.3739815,-1.1173443,-0.47929996,0.13493174,0.14609417,-0.039905675,-0.17370965,-1.3243953,-1.1549525,-1.2062311,-1.0299648,-0.4807837,-1.2287377,0.086687736,1.5860313
-0.64838916,-1.3739815,-1.1173443,-0.47929996,0.13493174,0.14609417,-0.039905675,-0.17370965,-1.3243953,-1.1903527,-1.2062311,-1.0299648,-0.4807837,-1.2287377,0.086687736,1.614586
-0.06545755,2.4647434,0.171475,0.78831,0.6632766,0.5541422,-0.039905675,0.22242874,-1.3243953,-1.1903527,-1.2062311,-1.0299648,-0.4807837,-1.2287377,0.086687736,1.614586
0.32316354,-2.0415857,-1.3628336,-1.74691,-1.2739879,-0.6700018,-0.166184,-0.04166352,-1.3243953,-1.1903527,-1.2062311,-1.0299648,-0.4807837,-1.2287377,0.086687736,1.614586
0.90609515,0.9626337,1.3375496,-0.47929996,-0.5695281,-0.26195383,0.08637264,0.22242874,-1.3243953,-1.1903527,-1.2062311,-1.0299648,-0.4807837,-1.2287377,0.086687736,1.614586
0.90609515,0.9626337,1.3375496,-0.47929996,-0.5695281,-0.26195383,0.08637264,0.22242874,-1.3243953,-1.1903527,-1.2062311,-1.0299648,-0.4807837,-1.2287377,0.086687736,1.614586
-0.06545755,-1.8746847,-0.56499314,-2.833433,-0.5695281,0.35011816,0.08637264,-0.17370965,-1.3243953,-1.1549525,-1.2062311,-1.0299648,-0.4450152,-1.2287377,0.1244837,1.6431407
0.7117846,0.1281283,-0.56499314,-0.026582126,0.8393916,0.5541422,-0.039905675,0.09038261,-1.3243953,-1.1549525,-1.2062311,-1.0299648,-0.4450152,-1.2287377,0.1244837,1.6431407
-0.2597681,-1.3739815,0.110102646,0.78831,0.13493174,0.14609417,0.21265097,0.09038261,-1.3243953,-1.1549525,-1.2062311,-1.0299648,-0.4450152,-1.2287377,0.1244837,1.6431407
-0.8426997,1.1295348,-0.8718549,-2.0185406,-1.097873,-0.6700018,-0.039905675,-0.04166352,-1.3243953,-1.1549525,-1.2062311,-1.0299648,-0.4450152,-1.2287377,0.1244837,1.6431407
0.12885298,-0.37257496,0.35559204,0.24504858,0.8393916,0.14609417,0.08637264,-0.04166352,-1.3243953,-1.1549525,-1.2062311,-1.0299648,-0.4450152,-1.2287377,0.1244837,1.6431407
0.12885298,-0.37257496,0.35559204,0.24504858,0.8393916,0.14609417,0.08637264,-0.04166352,-1.3243953,-1.1549525,-1.176583,-1.0299648,-0.4450152,-1.2287377,0.1244837,1.614586
0.51747406,1.630238,0.41696438,0.6977664,1.1916215,2.1863341,0.08637264,-0.04166352,-1.3243953,-1.1549525,-1.176583,-1.0299648,-0.4450152,-1.2287377,0.1244837,1.614586
0.32316354,-3.3767943,0.9079431,1.2410278,0.13493174,-1.0780498,-0.166184,0.22242874,-1.3243953,-1.1549525,-1.176583,-1.0299648,-0.4450152,-1.2287377,0.1244837,1.614586
0.32316354,-3.3767943,0.9079431,1.2410278,0.13493174,-1.0780498,-0.166184,0.22242874,-1.3243953,-1.1549525,-1.176583,-1.0299648,-0.4450152,-1.2287377,0.1244837,1.614586
-0.45407864,2.1309414,-1.1787167,-0.56984353,0.3110467,-0.26195383,-0.039905675,-0.17370965,-1.3243953,-1.1549525,-1.176583,-1.0299648,-0.4450152,-1.2287377,0.1244837,1.614586
-0.45407864,2.1309414,-1.1787167,-0.56984353,0.3110467,-0.26195383,-0.039905675,-0.17370965,-1.3243953,-1.1549525,-1.176583,-1.0299648,-0.4450152,-1.2287377,0.1244837,1.614586
0.32316354,0.1281283,-1.9151847,0.33559215,1.0155065,0.35011816,0.21265097,0.35447487,-1.3243953,-1.1549525,-1.2062311,-1.0299648,-0.4450152,-1.2287377,0.1244837,1.6431407
0.32316354,0.1281283,-1.9151847,0.33559215,1.0155065,0.35011816,0.21265097,0.35447487,-1.3243953,-1.1549525,-1.2062311,-1.0299648,-0.4450152,-1.2287377,0.1244837,1.6431407
-0.2597681,-0.038772784,-0.5036208,-2.380715,-0.921758,-0.46597782,-0.039905675,0.09038261,-1.3243953,-1.1549525,-1.2062311,-1.0299648,-0.4450152,-1.2287377,0.1244837,1.6431407
0.51747406,-0.37257496,0.5397091,1.6937457,0.8393916,0.35011816,0.08637264,0.22242874,-1.3243953,-1.1549525,-1.2062311,-1.0299648,-0.4450152,-1.2287377,0.1244837,1.6431407
0.12885298,-1.7077836,1.398922,2.5991814,-0.21729818,-0.46597782,-0.039905675,0.22242874,-1.3243953,-1.1549525,-1.2062311,-1.0299648,-0.4450152,-1.2287377,0.1244837,1.6431407
0.32316354,-3.5436954,1.0306878,1.0599407,-0.04118322,0.14609417,-0.166184,-0.04166352,-1.3243953,-1.1903527,-1.176583,-1.0299648,-0.4450152,-1.2287377,0.1244837,1.6431407
-0.06545755,0.29502937,1.7057836,-0.20766926,-0.04118322,-0.46597782,-0.039905675,-0.30575576,-1.3243953,-1.1903527,-1.176583,-1.0299648,-0.4450152,-1.2287377,0.1244837,1.6431407
-0.06545755,0.29502937,1.7057836,-0.20766926,-0.04118322,-0.46597782,-0.039905675,-0.30575576,-1.3243953,-1.1903527,-1.176583,-1.0299648,-0.4450152,-1.2287377,0.1244837,1.6431407
-0.06545755,2.4647434,1.3375496,1.9653764,-0.04118322,-0.46597782,-0.166184,-0.4378019,-1.3243953,-1.1903527,-1.2062311,-1.0566643,-0.4450152,-1.2287377,0.1244837,1.6431407
-0.06545755,2.4647434,1.3375496,1.9653764,-0.04118322,-0.46597782,-0.166184,-0.4378019,-1.3243953,-1.1903527,-1.2062311,-1.0566643,-0.4450152,-1.2287377,0.1244837,1.6431407
0.51747406,-2.0415857,-0.7491102,-0.9320178,-0.7456431,-0.8740258,-0.039905675,-0.04166352,-1.3243953,-1.1903527,-1.2062311,-1.0566643,-0.4450152,-1.2287377,0.1244837,1.6431407
0.51747406,-2.0415857,-0.7491102,-0.9320178,-0.7456431,-0.8740258,-0.039905675,-0.04166352,-1.3243953,-1.1903527,-1.2062311,-1.0566643,-0.4450152,-1.2287377,0.1244837,1.6431407
0.51747406,-2.0415857,-0.7491102,-0.9320178,-0.7456431,-0.8740258,-0.039905675,-0.04166352,-1.3243953,-1.1903527,-1.2062311,-1.0299648,-0.4450152,-1.2287377,0.1244837,1.6431407
-0.06545755,0.46193045,0.47833672,-1.2036486,0.8393916,0.5541422,0.08637264,0.22242874,-1.3243953,-1.1903527,-1.2062311,-1.0299648,-0.4450152,-1.2287377,0.1244837,1.6431407
-1.2313207,-6.714816,-3.4494934,-1.8374535,-0.5695281,-0.8740258,-0.039905675,-0.30575576,-1.3243953,-1.1903527,-1.2062311,-1.0299648,-0.4450152,-1.2287377,0.1244837,1.6431407
-1.2313207,-6.714816,-3.4494934,-1.8374535,-0.5695281,-0.8740258,-0.039905675,-0.30575576,-1.3243953,-1.1903527,-1.2062311,-1.0299648,-0.4450152,-1.2287377,0.1244837,1.6431407
0.32316354,1.463337,0.29421967,0.9693971,-0.5695281,-0.26195383,0.21265097,0.09038261,-1.3243953,-1.1903527,-1.2062311,-1.0299648,-0.4450152,-1.2287377,0.1244837,1.6431407
0.32316354,1.463337,0.29421967,0.9693971,-0.5695281,-0.26195383,0.21265097,0.09038261,-1.3243953,-1.1903527,-1.2062311,-1.0299648,-0.4450152,-1.2287377,0.1244837,1.6431407
-0.06545755,-1.5408825,0.23284733,-2.6523457,-0.04118322,0.7581662,0.08637264,-0.17370965,-1.3243953,-1.1903527,-1.2062311,-1.0299648,-0.4450152,-1.2287377,0.1244837,1.6431407
-0.2597681,-0.53947604,-0.93322724,-1.0225614,0.3110467,-2.0981698,-1.6815238,-3.0787244,0.11004853,-0.91476315,1.3176984,-0.21769089,1.2363422,-0.23062435,0.28128096,-0.04158696
-0.2597681,-0.53947604,-0.93322724,-1.0225614,0.3110467,-2.0981698,-1.6815238,-3.0787244,0.11004853,-0.91476315,1.3176984,-0.21769089,1.2363422,-0.23062435,0.28128096,-0.04158696
0.51747406,-0.53947604,0.23284733,-0.29821283,-1.8023329,-1.2820739,-0.92385393,-0.96598643,0.11004853,-0.91476315,1.3176984,-0.21769089,1.2363422,-0.23062435,0.28128096,-0.04158696
0.51747406,-0.53947604,0.23284733,-0.29821283,-1.8023329,-1.2820739,-0.92385393,-0.96598643,0.11004853,-0.91476315,1.3176984,-0.21769089,1.2363422,-0.23062435,0.28128096,-0.04158696
0.51747406,-0.53947604,0.23284733,-0.29821283,-1.8023329,-1.2820739,-0.92385393,-0.96598643,0.11004853,-0.91476315,1.3176984,-0.21769089,1.2363422,-0.23062435,0.28128096,-0.04158696
0.51747406,-0.53947604,0.23284733,-0.29821283,-1.8023329,-1.2820739,-0.92385393,-0.96598643,0.11004853,-0.91476315,1.3176984,-0.21769089,1.2363422,-0.23062435,0.28128096,-0.04158696
-0.45407864,0.29502937,1.3375496,0.6977664,-1.097873,-2.3021939,-2.4391937,-1.2300787,0.19725832,-0.91476315,1.4362906,-0.11089281,1.3436477,-0.11139485,0.39466885,-0.013032257
-0.45407864,0.29502937,1.3375496,0.6977664,-1.097873,-2.3021939,-2.4391937,-1.2300787,0.19725832,-0.91476315,1.4362906,-0.11089281,1.3436477,-0.11139485,0.39466885,-0.013032257
-0.45407864,0.29502937,1.3375496,0.6977664,-1.097873,-2.3021939,-2.4391937,-1.2300787,0.19725832,-0.91476315,1.4362906,-0.11089281,1.3436477,-0.11139485,0.39466885,-0.013032257
1.1004057,0.1281283,-0.44224846,0.9693971,1.8960813,0.96219015,4.506114,1.6749362,0.19725832,-0.91476315,1.4362906,-0.11089281,1.3436477,-0.11139485,0.39466885,-0.013032257
1.1004057,0.1281283,-0.44224846,0.9693971,1.8960813,0.96219015,4.506114,1.6749362,0.25539818,-0.91476315,1.5252348,-0.03079425,1.4151847,-0.03985715,0.47026077,0.015522449
-0.2597681,-0.20567386,-0.074014395,-0.20766926,0.48716167,-0.05792983,-1.3026888,-0.83394027,0.25539818,-0.91476315,1.5252348,-0.03079425,1.4151847,-0.03985715,0.47026077,0.015522449
-0.2597681,-0.20567386,-0.074014395,-0.20766926,0.48716167,-0.05792983,-1.3026888,-0.83394027,0.25539818,-0.91476315,1.5252348,-0.03079425,1.4151847,-0.03985715,0.47026077,0.015522449
1.6833373,-0.8732782,-0.074014395,-0.29821283,-0.39341313,0.5541422,-0.166184,1.4108438,0.31353804,-0.91476315,1.584531,0.07600383,1.5224903,0.055526454,0.5836487,0.015522449
-0.06545755,0.46193045,-0.19675909,-0.47929996,1.1916215,2.3903582,1.2228775,1.6749362,0.31353804,-0.91476315,1.584531,0.07600383,1.5224903,0.055526454,0.5836487,0.015522449
-0.06545755,0.46193045,-0.19675909,-0.47929996,1.1916215,2.3903582,1.2228775,1.6749362,0.31353804,-0.91476315,1.584531,0.07600383,1.5224903,0.055526454,0.5836487,0.015522449
-0.64838916,0.9626337,0.23284733,-0.20766926,-0.5695281,-0.8740258,-6.9852133,-0.96598643,0.31353804,-0.91476315,1.584531,0.07600383,1.5224903,0.055526454,0.5836487,0.015522449
-1.6199418,-0.20567386,0.96931547,0.5166793,1.3677365,1.5742621,0.3389293,1.6749362,0.31353804,-0.91476315,1.584531,0.07600383,1.5224903,0.055526454,0.5836487,0.015522449
-1.6199418,-0.20567386,0.96931547,0.5166793,1.3677365,1.5742621,0.3389293,1.6749362,0.3716779,-0.91476315,1.6734751,0.20950143,1.5940273,0.17475596,0.69703656,0.044077154
1.4890268,0.46193045,-0.19675909,-0.29821283,1.5438514,0.35011816,-1.1764106,-0.70189416,0.3716779,-0.91476315,1.6734751,0.20950143,1.5940273,0.17475596,0.69703656,0.044077154
-0.06545755,-0.038772784,-0.38087612,-0.75093067,-1.4501029,-1.6901218,-0.7975756,-0.04166352,0.3716779,-0.91476315,1.6734751,0.20950143,1.5940273,0.17475596,0.69703656,0.044077154
-0.06545755,-0.038772784,-0.38087612,-0.75093067,-1.4501029,-1.6901218,-0.7975756,-0.04166352,0.3716779,-0.91476315,1.6734751,0.20950143,1.5940273,0.17475596,0.69703656,0.044077154
-0.06545755,-0.038772784,-0.38087612,-0.75093067,-1.4501029,-1.6901218,-0.7975756,-0.04166352,0.3716779,-0.91476315,1.6734751,0.20950143,1.5940273,0.17475596,0.69703656,0.044077154
-0.2597681,0.29502937,-2.8971424,0.42613572,0.13493174,-2.0981698,-2.3129156,1.4108438,0.3716779,-0.91476315,1.6734751,0.20950143,1.5940273,0.17475596,0.69703656,0.044077154
1.8776479,0.1281283,0.23284733,1.8748329,3.481116,0.5541422,-1.8078022,-0.04166352,0.48795763,-0.91476315,1.7624193,0.42309758,1.7013328,0.36552316,0.88601637,0.07263186
-0.2597681,0.7957326,0.6624538,0.78831,0.48716167,2.3903582,7.9156284,0.35447487,0.48795763,-0.91476315,1.7624193,0.42309758,1.7013328,0.36552316,0.88601637,0.07263186
-0.2597681,0.7957326,0.6624538,0.78831,0.48716167,2.3903582,7.9156284,0.35447487,0.48795763,-0.91476315,1.7624193,0.42309758,1.7013328,0.36552316,0.88601637,0.07263186
1.1004057,-0.038772784,-0.01264205,-0.6603871,0.13493174,0.96219015,-0.67129725,0.6185671,0.48795763,-0.91476315,1.7624193,0.42309758,1.7013328,0.36552316,0.88601637,0.07263186
0.7117846,0.62883157,0.29421967,0.06396145,-1.8023329,-0.26195383,4.6323924,1.8069823,0.48795763,-0.91476315,1.7624193,0.42309758,1.7013328,0.36552316,0.88601637,0.07263186
0.7117846,0.62883157,0.29421967,0.06396145,-1.8023329,-0.26195383,4.6323924,1.8069823,0.54609746,-0.91476315,1.8513635,0.60999423,1.7728698,0.5562904,0.99940425,0.101186566
-0.2597681,-0.8732782,0.78519845,1.2410278,-1.2739879,-1.8941458,-1.5552455,-0.70189416,0.54609746,-0.91476315,1.8513635,0.60999423,1.7728698,0.5562904,0.99940425,0.101186566
-1.4256313,-0.37257496,-0.5036208,0.15450501,0.3110467,1.5742621,-0.67129725,1.2787977,0.54609746,-0.91476315,1.8513635,0.60999423,1.7728698,0.5562904,0.99940425,0.101186566
-0.06545755,-0.038772784,1.7057836,0.15450501,-0.921758,-2.7102418,-2.6917503,-2.2864478,0.54609746,-0.91476315,1.8513635,0.60999423,1.7728698,0.5562904,0.99940425,0.101186566
-0.06545755,-0.038772784,1.7057836,0.15450501,-0.921758,-2.7102418,-2.6917503,-2.2864478,0.54609746,-0.91476315,1.8513635,0.60999423,1.7728698,0.5562904,0.99940425,0.101186566
-1.2313207,-0.37257496,-1.424206,-1.3847357,0.48716167,-0.8740258,-1.3026888,-1.0980326,0.6042373,-0.91476315,1.8810116,0.8235904,1.8444068,0.77090347,1.1127921,0.07263186
-1.2313207,-0.37257496,-1.424206,-1.3847357,0.48716167,-0.8740258,-1.3026888,-1.0980326,0.6042373,-0.91476315,1.8810116,0.8235904,1.8444068,0.77090347,1.1127921,0.07263186
3.4321322,1.630238,2.7491136,2.05592,0.6632766,0.96219015,4.253557,4.0517664,0.6042373,-0.91476315,1.8810116,0.8235904,1.8444068,0.77090347,1.1127921,0.07263186
0.12885298,-0.37257496,0.60108143,-1.2941921,-1.4501029,0.14609417,-1.6815238,-5.0594163,0.6042373,-0.91476315,1.8810116,0.8235904,1.8444068,0.77090347,1.1127921,0.07263186
-0.64838916,-0.20567386,0.47833672,0.78831,1.5438514,0.5541422,4.0010004,3.7876742,0.6042373,-0.91476315,1.8810116,0.8235904,1.8444068,0.77090347,1.1127921,0.07263186
-0.64838916,-0.20567386,0.47833672,0.78831,1.5438514,0.5541422,4.0010004,3.7876742,0.6042373,-0.91476315,1.8810116,0.8235904,1.8444068,0.77090347,1.1127921,0.07263186
-0.8426997,-0.038772784,-0.93322724,-0.6603871,-0.04118322,-1.0780498,0.21265097,1.4108438,0.6623772,-0.91476315,1.9699558,1.0371865,1.8801754,0.9855166,1.22618,0.101186566
0.32316354,0.7957326,0.9079431,0.5166793,0.8393916,0.5541422,-2.0603588,-1.626217,0.6623772,-0.91476315,1.9699558,1.0371865,1.8801754,0.9855166,1.22618,0.101186566
0.32316354,0.7957326,0.9079431,0.5166793,0.8393916,0.5541422,-2.0603588,-1.626217,0.6623772,-0.91476315,1.9699558,1.0371865,1.8801754,0.9855166,1.22618,0.101186566
-2.5914946,-0.7063771,-0.38087612,-0.3887564,-0.7456431,-0.8740258,-1.6815238,-5.3235087,0.6623772,-0.91476315,1.9699558,1.0371865,1.8801754,0.9855166,1.22618,0.101186566
-2.5914946,-0.7063771,-0.38087612,-0.3887564,-0.7456431,-0.8740258,-1.6815238,-5.3235087,0.6623772,-0.91476315,1.9699558,1.0371865,1.8801754,0.9855166,1.22618,0.101186566
-0.64838916,-0.20567386,0.171475,1.6032021,-0.21729818,-1.4860978,4.0010004,-0.70189416,0.72051704,-0.91476315,1.999604,1.1706841,1.9159439,1.1047461,1.3017719,0.101186566
2.65489,0.62883157,2.1967623,1.9653764,0.13493174,-0.46597782,-4.2070904,-2.4184937,0.72051704,-0.91476315,1.999604,1.1706841,1.9159439,1.1047461,1.3017719,0.101186566
-1.4256313,-0.038772784,1.1534325,1.0599407,2.2483113,-0.26195383,-1.9340805,-2.55054,0.72051704,-0.91476315,1.999604,1.1706841,1.9159439,1.1047461,1.3017719,0.101186566
-0.45407864,-1.5408825,-3.6949828,-1.4752792,-1.9784478,-2.9142659,-3.1968637,-1.626217,0.72051704,-0.91476315,1.999604,1.1706841,1.9159439,1.1047461,1.3017719,0.101186566
-0.45407864,-1.5408825,-3.6949828,-1.4752792,-1.9784478,-2.9142659,-3.1968637,-1.626217,0.749587,-0.91476315,2.029252,1.3041817,1.9517124,1.2001296,1.3395679,0.12974128
-0.45407864,-1.5408825,-3.6949828,-1.4752792,-1.9784478,-2.9142659,-3.1968637,-1.626217,0.749587,-0.91476315,2.029252,1.3041817,1.9517124,1.2001296,1.3395679,0.12974128
-0.2597681,-0.37257496,1.2761772,1.3315715,-0.04118322,-0.05792983,5.8951755,3.9197204,0.749587,-0.91476315,2.029252,1.3041817,1.9517124,1.2001296,1.3395679,0.12974128
-0.2597681,-0.37257496,1.2761772,1.3315715,-0.04118322,-0.05792983,5.8951755,3.9197204,0.7786569,-0.91476315,2.029252,1.3842803,1.9874809,1.2955133,1.4151598,0.12974128
-0.2597681,-0.37257496,1.2761772,1.3315715,-0.04118322,-0.05792983,5.8951755,3.9197204,0.7786569,-0.91476315,2.029252,1.3842803,1.9874809,1.2955133,1.4151598,0.12974128
-0.2597681,-0.37257496,1.2761772,1.3315715,-0.04118322,-0.05792983,5.8951755,3.9197204,0.7786569,-0.91476315,2.029252,1.3842803,1.9874809,1.2955133,1.4151598,0.12974128
-0.2597681,-0.37257496,1.2761772,1.3315715,-0.04118322,-0.05792983,5.8951755,3.9197204,0.7786569,-0.91476315,2.029252,1.3842803,1.9874809,1.2955133,1.4151598,0.12974128
-0.2597681,-0.37257496,1.2761772,1.3315715,-0.04118322,-0.05792983,5.8951755,3.9197204,0.7786569,-0.91476315,2.029252,1.3842803,1.9874809,1.2955133,1.4151598,0.12974128
1.8776479,1.463337,0.7238261,0.6977664,0.3110467,-0.46597782,3.8747222,3.3915358,0.7786569,-0.91476315,2.029252,1.4643788,2.0232494,1.367051,1.4907517,0.15829597
1.4890268,0.1281283,0.9079431,0.24504858,0.13493174,1.5742621,1.7279909,3.3915358,0.7786569,-0.91476315,2.029252,1.4643788,2.0232494,1.367051,1.4907517,0.15829597
1.4890268,0.1281283,0.9079431,0.24504858,0.13493174,1.5742621,1.7279909,3.3915358,0.7786569,-0.91476315,2.029252,1.4643788,2.0232494,1.367051,1.4907517,0.15829597
1.6833373,0.29502937,0.7238261,0.24504858,-1.097873,-1.4860978,-2.6917503,2.7313051,0.7786569,-0.91476315,2.029252,1.4643788,2.0232494,1.367051,1.4907517,0.15829597
-0.2597681,0.7957326,0.8465708,1.7842892,2.9527712,0.14609417,-5.4698734,-2.4184937,0.7786569,-0.91476315,2.029252,1.4643788,2.0232494,1.367051,1.4907517,0.15829597
-0.2597681,0.7957326,0.8465708,1.7842892,2.9527712,0.14609417,-5.4698734,-2.4184937,0.7786569,-0.91476315,2.029252,1.4643788,2.0232494,1.367051,1.4907517,0.15829597
-2.9801157,-1.2070804,-0.38087612,-0.75093067,-1.2739879,-2.0981698,-5.343595,-5.455555,0.80772686,-0.91476315,2.0589,1.5711769,2.0232494,1.4385887,1.5285476,0.18685068
0.51747406,0.62883157,0.35559204,-0.29821283,-0.5695281,-0.05792983,-0.67129725,-0.4378019,0.80772686,-0.91476315,2.0589,1.5711769,2.0232494,1.4385887,1.5285476,0.18685068
-0.64838916,0.1281283,0.8465708,-0.56984353,-0.39341313,0.14609417,2.233104,4.315859,0.80772686,-0.91476315,2.0589,1.5711769,2.0232494,1.4385887,1.5285476,0.18685068
-0.64838916,0.1281283,0.8465708,-0.56984353,-0.39341313,0.14609417,2.233104,4.315859,0.80772686,-0.91476315,2.0589,1.5711769,2.0232494,1.4385887,1.5285476,0.18685068
-0.06545755,-0.038772784,-1.9765571,-1.1131049,-0.5695281,-0.6700018,-2.0603588,-1.7582632,0.80772686,-0.91476315,2.0589,1.5711769,2.0232494,1.4385887,1.5285476,0.18685068
0.32316354,0.29502937,3.1173477,1.2410278,-1.097873,0.5541422,0.08637264,0.22242874,0.83679676,-0.91476315,2.0589,1.5978764,2.059018,1.4624346,1.5663437,0.21540539
0.32316354,0.29502937,3.1173477,1.2410278,-1.097873,0.5541422,0.08637264,0.22242874,0.83679676,-0.91476315,2.0589,1.5978764,2.059018,1.4624346,1.5663437,0.21540539
-1.2313207,0.29502937,-0.5036208,-0.026582126,0.8393916,0.7581662,-0.41874063,-1.2300787,0.83679676,-0.91476315,2.0589,1.5978764,2.059018,1.4624346,1.5663437,0.21540539
-1.2313207,0.29502937,-0.5036208,-0.026582126,0.8393916,0.7581662,-0.41874063,-1.2300787,0.83679676,-0.91476315,2.0589,1.5978764,2.059018,1.4624346,1.5663437,0.21540539
-2.008563,-1.0401793,-0.5036208,-0.75093067,-0.39341313,-0.26195383,-0.41874063,-1.7582632,0.83679676,-0.91476315,2.0589,1.5978764,2.059018,1.4624346,1.5663437,0.21540539
-2.008563,-1.0401793,-0.5036208,-0.75093067,-0.39341313,-0.26195383,-0.41874063,-1.7582632,0.83679676,-0.91476315,2.0589,1.624576,2.059018,1.4862804,1.5663437,0.2439601
0.12885298,0.9626337,1.0306878,1.3315715,-0.39341313,-2.0981698,-2.1866372,0.09038261,0.83679676,-0.91476315,2.0589,1.624576,2.059018,1.4862804,1.5663437,0.2439601
0.51747406,0.62883157,-0.93322724,-0.75093067,-0.04118322,0.14609417,0.4652076,-0.4378019,0.83679676,-0.91476315,2.0589,1.624576,2.059018,1.4862804,1.5663437,0.2439601
0.51747406,0.62883157,-0.93322724,-0.75093067,-0.04118322,0.14609417,0.4652076,-0.4378019,0.83679676,-0.91476315,2.0589,1.624576,2.059018,1.4862804,1.5663437,0.2439601
-0.45407864,-0.038772784,-2.283419,-1.6563663,-0.5695281,-0.46597782,1.0965992,4.711997,0.83679676,-0.9501632,2.0589,1.624576,2.059018,1.4862804,1.5663437,0.2439601
-0.45407864,-0.038772784,-2.283419,-1.6563663,-0.5695281,-0.46597782,1.0965992,4.711997,0.83679676,-0.9501632,2.0589,1.624576,2.059018,1.4862804,1.5663437,0.2439601
-0.45407864,-0.038772784,-2.283419,-1.6563663,-0.5695281,-0.46597782,1.0965992,4.711997,0.83679676,-0.9501632,2.0589,1.624576,2.059018,1.4862804,1.5663437,0.2439601
-1.0370102,0.1281283,1.1534325,0.87885356,0.8393916,1.3702382,1.9805474,0.6185671,0.83679676,-0.9501632,2.0589,1.624576,2.059018,1.4862804,1.5663437,0.2439601
0.12885298,0.1281283,0.23284733,0.33559215,-0.21729818,-2.0981698,-4.585925,-3.4748628,0.83679676,-0.9501632,2.0589,1.624576,2.059018,1.4862804,1.5663437,0.2439601
0.12885298,0.1281283,0.23284733,0.33559215,-0.21729818,-2.0981698,-4.585925,-3.4748628,0.83679676,-0.9501632,2.0589,1.624576,2.059018,1.4862804,1.5663437,0.2439601
0.12885298,0.1281283,0.23284733,0.33559215,-0.21729818,-2.0981698,-4.585925,-3.4748628,0.83679676,-0.91476315,2.0589,1.6512755,2.059018,1.4862804,1.5663437,0.2439601
-0.2597681,-1.0401793,-0.93322724,-0.29821283,-1.6262178,0.35011816,-0.29246232,1.9390284,0.83679676,-0.91476315,2.0589,1.6512755,2.059018,1.4862804,1.5663437,0.2439601
-0.45407864,-0.37257496,1.7057836,-0.1171257,-0.04118322,-0.26195383,-0.92385393,-0.70189416,0.83679676,-0.91476315,2.0589,1.6512755,2.059018,1.4862804,1.5663437,0.2439601
1.2947162,0.46193045,-0.56499314,-0.84147424,-0.5695281,0.5541422,7.5367937,4.1838126,0.83679676,-0.91476315,2.0589,1.6512755,2.059018,1.4862804,1.5663437,0.2439601
1.2947162,0.46193045,-0.56499314,-0.84147424,-0.5695281,0.5541422,7.5367937,4.1838126,0.83679676,-0.91476315,2.0589,1.6512755,2.059018,1.4862804,1.5663437,0.2439601
-1.8142524,-0.53947604,0.8465708,0.87885356,1.1916215,-1.0780498,-4.2070904,-2.2864478,0.83679676,-0.91476315,2.0589,1.6512755,2.059018,1.4862804,1.5663437,0.2439601
0.7117846,0.1281283,0.41696438,0.42613572,0.3110467,0.35011816,1.2228775,-5.0594163,0.83679676,-0.91476315,2.0589,1.6512755,2.059018,1.4862804,1.5663437,0.2439601
0.7117846,0.1281283,0.41696438,0.42613572,0.3110467,0.35011816,1.2228775,-5.0594163,0.83679676,-0.91476315,2.0589,1.6512755,2.059018,1.4862804,1.5663437,0.2439601
-1.0370102,-0.53947604,0.47833672,0.9693971,-0.5695281,-1.6901218,-1.5552455,-2.8146322,0.83679676,-0.91476315,2.0589,1.6512755,2.059018,1.4862804,1.5663437,0.2439601
0.32316354,0.7957326,0.5397091,-0.29821283,-0.921758,-0.46597782,-1.4289672,1.0147055,0.83679676,-0.91476315,2.0589,1.6512755,2.059018,1.4862804,1.5663437,0.2439601
0.32316354,0.7957326,0.5397091,-0.29821283,-0.921758,-0.46597782,-1.4289672,1.0147055,0.83679676,-0.91476315,2.0589,1.6512755,2.059018,1.4862804,1.5663437,0.2439601
0.32316354,0.7957326,0.5397091,-0.29821283,-0.921758,-0.46597782,-1.4289672,1.0147055,0.83679676,-0.91476315,2.0589,1.6512755,2.059018,1.4862804,1.5663437,0.2439601
1.8776479,0.62883157,-0.44224846,-0.9320178,-1.097873,-0.26195383,1.3491559,1.9390284,0.83679676,-0.91476315,2.0589,1.6512755,2.059018,1.4862804,1.5663437,0.2439601
1.8776479,0.62883157,-0.44224846,-0.9320178,-1.097873,-0.26195383,1.3491559,1.9390284,0.83679676,-0.91476315,2.0589,1.6512755,2.059018,1.4862804,1.5663437,0.2439601
1.8776479,0.62883157,-0.44224846,-0.9320178,-1.097873,-0.26195383,1.3491559,1.9390284,0.83679676,-0.91476315,2.0589,1.6512755,2.059018,1.4862804,1.5663437,0.2439601
1.8776479,0.62883157,-0.44224846,-0.9320178,-1.097873,-0.26195383,1.3491559,1.9390284,0.83679676,-0.91476315,2.0589,1.6512755,2.059018,1.4862804,1.5663437,0.2439601
0.90609515,0.9626337,-0.25813144,-0.56984353,2.0721962,5.858766,6.1477323,1.5428901,0.83679676,-0.91476315,2.0589,1.6512755,2.059018,1.4862804,1.5663437,0.2439601
-0.2597681,-1.3739815,0.6624538,-0.20766926,-0.04118322,0.14609417,0.08637264,0.22242874,-1.4504074,-0.7592684,-1.3618089,-0.86542606,-1.3325753,-0.46060273,-1.237669,-0.9436222
-0.64838916,-1.5408825,-0.56499314,-1.9279971,-0.5695281,-0.26195383,-0.29246232,-0.17370965,-1.4504074,-0.7592684,-1.3618089,-0.86542606,-1.3325753,-0.46060273,-1.237669,-0.9436222
-0.06545755,-0.20567386,0.5397091,-0.9320178,1.0155065,0.35011816,-0.166184,0.35447487,-1.4504074,-0.7592684,-1.3618089,-0.86542606,-1.3325753,-0.46060273,-1.237669,-0.9436222
0.7117846,0.1281283,-0.31950378,0.06396145,-0.7456431,-0.05792983,0.21265097,0.22242874,-1.4504074,-0.7592684,-1.391457,-0.86542606,-1.3325753,-0.46060273,-1.237669,-0.9436222
0.32316354,0.46193045,0.5397091,-1.2036486,-0.21729818,0.35011816,-0.039905675,0.09038261,-1.4504074,-0.7592684,-1.391457,-0.86542606,-1.3325753,-0.46060273,-1.237669,-0.9436222
0.32316354,0.46193045,0.5397091,-1.2036486,-0.21729818,0.35011816,-0.039905675,0.09038261,-1.4504074,-0.7592684,-1.391457,-0.86542606,-1.3325753,-0.46060273,-1.237669,-0.9436222
0.12885298,1.2964358,1.0920602,1.7842892,1.3677365,0.14609417,0.21265097,0.09038261,-1.4504074,-0.7592684,-1.391457,-0.86542606,-1.3325753,-0.46060273,-1.237669,-0.9436222
-0.06545755,0.9626337,0.60108143,0.6977664,-0.21729818,-0.8740258,-0.166184,-0.17370965,-1.4504074,-0.7592684,-1.391457,-0.86542606,-1.3325753,-0.46060273,-1.237669,-0.9436222
0.51747406,2.2978423,-1.055972,0.78831,1.1916215,0.96219015,-0.29246232,-0.17370965,-1.4504074,-0.7592684,-1.391457,-0.86542606,-1.3325753,-0.46060273,-1.237669,-0.9436222
0.51747406,2.2978423,-1.055972,0.78831,1.1916215,0.96219015,-0.29246232,-0.17370965,-1.4504074,-0.7592684,-1.391457,-0.86542606,-1.3325753,-0.46060273,-1.237669,-0.9436222
-0.64838916,-2.0415857,-1.2400889,-0.026582126,-0.04118322,-0.05792983,-0.039905675,0.09038261,-1.4504074,-0.7592684,-1.391457,-0.86542606,-1.3325753,-0.46060273,-1.237669,-0.9436222
-0.64838916,-2.0415857,-1.2400889,-0.026582126,-0.04118322,-0.05792983,-0.039905675,0.09038261,-1.4504074,-0.7592684,-1.391457,-0.86542606,-1.3325753,-0.46060273,-1.237669,-0.9436222
-0.64838916,-2.0415857,-1.2400889,-0.026582126,-0.04118322,-0.05792983,-0.039905675,0.09038261,-1.4504074,-0.7592684,-1.391457,-0.89212555,-1.3325753,-0.48444864,-1.237669,-0.9436222
-0.64838916,-1.2070804,-0.56499314,-0.75093067,-0.5695281,0.35011816,0.08637264,-0.4378019,-1.4504074,-0.7592684,-1.391457,-0.89212555,-1.3325753,-0.48444864,-1.237669,-0.9436222
-0.2597681,-0.038772784,0.5397091,0.15450501,0.13493174,-0.26195383,0.08637264,0.09038261,-1.4504074,-0.7592684,-1.391457,-0.89212555,-1.3325753,-0.48444864,-1.237669,-0.9436222
-0.2597681,-0.038772784,0.5397091,0.15450501,0.13493174,-0.26195383,0.08637264,0.09038261,-1.4504074,-0.7592684,-1.391457,-0.89212555,-1.3325753,-0.48444864,-1.237669,-0.9436222
0.12885298,1.1295348,1.5830389,0.60722286,0.3110467,-0.05792983,-0.039905675,0.09038261,-1.4504074,-0.7592684,-1.391457,-0.89212555,-1.3325753,-0.48444864,-1.237669,-0.9436222
0.12885298,1.1295348,1.5830389,0.60722286,0.3110467,-0.05792983,-0.039905675,0.09038261,-1.4504074,-0.7592684,-1.391457,-0.86542606,-1.3325753,-0.48444864,-1.237669,-0.9436222
0.32316354,2.1309414,0.5397091,0.60722286,0.48716167,0.35011816,-0.039905675,0.09038261,-1.4504074,-0.7592684,-1.391457,-0.86542606,-1.3325753,-0.48444864,-1.237669,-0.9436222
0.32316354,2.1309414,0.5397091,0.60722286,0.48716167,0.35011816,-0.039905675,0.09038261,-1.4504074,-0.7592684,-1.391457,-0.86542606,-1.3325753,-0.48444864,-1.237669,-0.9436222
-0.8426997,-1.0401793,-0.9945996,-0.9320178,-0.21729818,-0.26195383,-0.039905675,0.09038261,-1.4504074,-0.7592684,-1.391457,-0.86542606,-1.3325753,-0.48444864,-1.237669,-0.9436222
-0.8426997,-1.0401793,-0.9945996,-0.9320178,-0.21729818,-0.26195383,-0.039905675,0.09038261,-1.4504074,-0.7592684,-1.391457,-0.86542606,-1.3325753,-0.48444864,-1.237669,-0.9436222
0.32316354,-0.038772784,1.398922,-0.1171257,0.8393916,0.7581662,0.08637264,0.35447487,-1.4504074,-0.7592684,-1.391457,-0.89212555,-1.3325753,-0.46060273,-1.237669,-0.9436222
0.32316354,-0.038772784,1.398922,-0.1171257,0.8393916,0.7581662,0.08637264,0.35447487,-1.4504074,-0.7592684,-1.391457,-0.89212555,-1.3325753,-0.46060273,-1.237669,-0.9436222
-0.06545755,-0.37257496,-0.93322724,0.06396145,-0.04118322,-0.26195383,0.21265097,0.09038261,-1.4504074,-0.7592684,-1.391457,-0.89212555,-1.3325753,-0.46060273,-1.237669,-0.9436222
0.32316354,2.1309414,1.3375496,-0.20766926,0.13493174,-0.05792983,-0.039905675,0.09038261,-1.4504074,-0.7592684,-1.391457,-0.89212555,-1.3325753,-0.46060273,-1.237669,-0.9436222
-0.64838916,-0.37257496,-0.01264205,0.33559215,-0.21729818,-0.26195383,0.08637264,0.35447487,-1.4504074,-0.7592684,-1.391457,-0.89212555,-1.3325753,-0.46060273,-1.237669,-0.9436222
0.7117846,1.9640402,0.35559204,-0.3887564,-0.04118322,0.35011816,-0.166184,-0.4378019,-1.4504074,-0.7592684,-1.391457,-0.89212555,-1.3325753,-0.46060273,-1.237669,-0.9436222
0.7117846,1.9640402,0.35559204,-0.3887564,-0.04118322,0.35011816,-0.166184,-0.4378019,-1.4504074,-0.7592684,-1.391457,-0.89212555,-1.3325753,-0.46060273,-1.237669,-0.9436222
0.7117846,1.9640402,0.35559204,-0.3887564,-0.04118322,0.35011816,-0.166184,-0.4378019,-1.4504074,-0.7592684,-1.391457,-0.89212555,-1.3325753,-0.46060273,-1.237669,-0.9436222
-0.06545755,-2.2084868,-0.31950378,-1.0225614,0.48716167,0.35011816,-0.039905675,0.09038261,-1.4504074,-0.7592684,-1.391457,-0.89212555,-1.3325753,-0.46060273,-1.237669,-0.9436222
-0.06545755,-2.2084868,-0.31950378,-1.0225614,0.48716167,0.35011816,-0.039905675,0.09038261,-1.4504074,-0.7592684,-1.391457,-0.86542606,-1.3325753,-0.46060273,-1.237669,-0.9436222
0.12885298,-0.7063771,-0.8718549,-0.1171257,-0.04118322,0.7581662,0.08637264,-0.17370965,-1.4504074,-0.7592684,-1.391457,-0.86542606,-1.3325753,-0.46060273,-1.237669,-0.9436222
0.51747406,-0.038772784,-0.01264205,-0.84147424,-0.21729818,-0.05792983,-0.039905675,0.22242874,-1.4504074,-0.7592684,-1.391457,-0.86542606,-1.3325753,-0.46060273,-1.237669,-0.9436222
-0.06545755,-0.20567386,-0.5036208,0.42613572,-0.04118322,0.14609417,-0.039905675,-0.04166352,-1.4504074,-0.7592684,-1.391457,-0.86542606,-1.3325753,-0.46060273,-1.237669,-0.9436222
-0.06545755,-0.20567386,-0.5036208,0.42613572,-0.04118322,0.14609417,-0.039905675,-0.04166352,-1.4504074,-0.7592684,-1.391457,-0.86542606,-1.3325753,-0.46060273,-1.237669,-0.9436222
0.32316354,0.46193045,0.7238261,-0.3887564,-0.04118322,-0.26195383,0.08637264,-0.04166352,-1.4504074,-0.7592684,-1.391457,-0.86542606,-1.3325753,-0.46060273,-1.237669,-0.9436222
0.32316354,0.46193045,0.7238261,-0.3887564,-0.04118322,-0.26195383,0.08637264,-0.04166352,-1.4504074,-0.7592684,-1.391457,-0.86542606,-1.3325753,-0.46060273,-1.237669,-0.9436222
-0.06545755,-0.37257496,-0.7491102,-0.6603871,-0.21729818,-0.46597782,-0.166184,0.09038261,-1.4504074,-0.7592684,-1.391457,-0.86542606,-1.3325753,-0.46060273,-1.237669,-0.9436222
0.12885298,-0.53947604,-0.6877379,-0.47929996,0.13493174,-0.26195383,0.21265097,0.35447487,-1.4504074,-0.7592684,-1.391457,-0.86542606,-1.3325753,-0.46060273,-1.237669,-0.9436222
0.12885298,-0.53947604,-0.6877379,-0.47929996,0.13493174,-0.26195383,0.21265097,0.35447487,-1.4504074,-0.7592684,-1.391457,-0.89212555,-1.3325753,-0.48444864,-1.237669,-0.9436222
0.12885298,-0.53947604,-0.6877379,-0.47929996,0.13493174,-0.26195383,0.21265097,0.35447487,-1.4504074,-0.7592684,-1.391457,-0.89212555,-1.3325753,-0.48444864,-1.237669,-0.9436222
-0.8426997,-1.2070804,-0.01264205,1.6937457,0.48716167,0.35011816,-0.039905675,-0.30575576,-1.4504074,-0.7592684,-1.391457,-0.89212555,-1.3325753,-0.48444864,-1.237669,-0.9436222
-0.8426997,-1.2070804,-0.01264205,1.6937457,0.48716167,0.35011816,-0.039905675,-0.30575576,-1.4504074,-0.7592684,-1.391457,-0.89212555,-1.3325753,-0.48444864,-1.237669,-0.9436222
1.1004057,1.1295348,-0.01264205,-0.56984353,-0.921758,0.35011816,-0.039905675,-0.17370965,-1.4504074,-0.7592684,-1.391457,-0.89212555,-1.3325753,-0.48444864,-1.237669,-0.9436222
0.32316354,0.29502937,0.110102646,0.06396145,-0.21729818,-0.26195383,-0.039905675,-0.30575576,-1.4504074,-0.7592684,-1.391457,-0.89212555,-1.3325753,-0.48444864,-1.237669,-0.9436222
0.32316354,0.29502937,0.110102646,0.06396145,-0.21729818,-0.26195383,-0.039905675,-0.30575576,-1.4504074,-0.7592684,-1.391457,-0.89212555,-1.3325753,-0.48444864,-1.237669,-0.9436222
-0.06545755,0.7957326,0.7238261,0.5166793,0.13493174,-0.46597782,0.08637264,-0.04166352,-1.4504074,-0.7592684,-1.3618089,-0.89212555,-1.3325753,-0.46060273,-1.237669,-0.9436222
0.12885298,-0.7063771,-0.19675909,-0.3887564,0.3110467,-0.26195383,0.21265097,0.22242874,-1.4504074,-0.7592684,-1.3618089,-0.89212555,-1.3325753,-0.46060273,-1.237669,-0.9436222
-0.64838916,-0.37257496,0.110102646,-0.47929996,-0.04118322,0.35011816,0.3389293,0.09038261,-1.4504074,-0.7592684,-1.3618089,-0.89212555,-1.3325753,-0.46060273,-1.237669,-0.9436222
-0.64838916,-0.37257496,0.110102646,-0.47929996,-0.04118322,0.35011816,0.3389293,0.09038261,-1.4504074,-0.7592684,-1.3618089,-0.89212555,-1.3325753,-0.46060273,-1.237669,-0.9436222
0.90609515,1.2964358,0.7238261,1.1504843,0.3110467,-0.05792983,0.08637264,-0.17370965,-1.4504074,-0.7592684,-1.391457,-0.86542606,-1.3325753,-0.48444864,-1.237669,-0.9436222
-0.06545755,-0.37257496,0.048730295,1.6032021,-0.21729818,-0.05792983,-0.166184,-0.04166352,-1.4504074,-0.7592684,-1.391457,-0.86542606,-1.3325753,-0.48444864,-1.237669,-0.9436222
0.7117846,0.9626337,-0.31950378,0.5166793,-0.39341313,-1.0780498,0.3389293,0.22242874,-1.4504074,-0.7592684,-1.391457,-0.86542606,-1.3325753,-0.48444864,-1.237669,-0.9436222
-0.2597681,-0.53947604,0.41696438,-0.75093067,0.3110467,0.5541422,-0.039905675,-0.04166352,-1.4504074,-0.7592684,-1.391457,-0.86542606,-1.3325753,-0.48444864,-1.237669,-0.9436222
-0.2597681,-0.53947604,0.41696438,-0.75093067,0.3110467,0.5541422,-0.039905675,-0.04166352,-1.4504074,-0.7592684,-1.391457,-0.86542606,-1.3325753,-0.48444864,-1.237669,-0.9436222
0.12885298,0.62883157,-0.13538675,0.06396145,0.13493174,-0.26195383,-0.039905675,-0.04166352,-1.4504074,-0.7592684,-1.3618089,-0.86542606,-1.3325753,-0.46060273,-1.237669,-0.9436222
0.12885298,0.62883157,-0.13538675,0.06396145,0.13493174,-0.26195383,-0.039905675,-0.04166352,-1.4504074,-0.7592684,-1.3618089,-0.86542606,-1.3325753,-0.46060273,-1.237669,-0.9436222
0.51747406,1.7971392,1.3375496,2.7802684,0.8393916,0.35011816,-0.166184,-0.04166352,-1.4504074,-0.7592684,-1.3618089,-0.86542606,-1.3325753,-0.46060273,-1.237669,-0.9436222
-0.8426997,-0.7063771,-2.5289083,-2.1090841,-1.2739879,-0.6700018,-0.166184,0.09038261,-1.4504074,-0.7592684,-1.3618089,-0.86542606,-1.3325753,-0.46060273,-1.237669,-0.9436222
-0.8426997,-0.7063771,-2.5289083,-2.1090841,-1.2739879,-0.6700018,-0.166184,0.09038261,-1.4504074,-0.7592684,-1.3618089,-0.86542606,-1.3325753,-0.46060273,-1.237669,-0.9436222
-0.45407864,-1.3739815,-0.25813144,-1.1131049,-0.921758,-0.46597782,0.08637264,-0.17370965,-1.4504074,-0.7592684,-1.391457,-0.86542606,-1.3325753,-0.46060273,-1.237669,-0.9436222
-0.45407864,-1.3739815,-0.25813144,-1.1131049,-0.921758,-0.46597782,0.08637264,-0.17370965,-1.4504074,-0.7592684,-1.391457,-0.86542606,-1.3325753,-0.46060273,-1.237669,-0.9436222
0.12885298,-0.53947604,0.23284733,-0.84147424,0.3110467,0.35011816,0.08637264,-0.04166352,-1.4504074,-0.7592684,-1.391457,-0.86542606,-1.3325753,-0.46060273,-1.237669,-0.9436222
0.32316354,0.46193045,-0.31950378,-1.1131049,-0.7456431,-0.05792983,0.3389293,-0.17370965,-1.4504074,-0.7592684,-1.391457,-0.86542606,-1.3325753,-0.46060273,-1.237669,-0.9436222
0.32316354,0.46193045,-0.31950378,-1.1131049,-0.7456431,-0.05792983,0.3389293,-0.17370965,-1.4504074,-0.7592684,-1.3618089,-0.86542606,-1.3325753,-0.46060273,-1.237669,-0.9436222
-0.06545755,0.62883157,0.41696438,0.6977664,1.1916215,0.35011816,0.08637264,0.22242874,-1.4504074,-0.7592684,-1.3618089,-0.86542606,-1.3325753,-0.46060273,-1.237669,-0.9436222
-0.2597681,-0.53947604,-1.055972,-2.380715,-0.921758,-0.46597782,-0.039905675,0.22242874,-1.4504074,-0.7592684,-1.3618089,-0.86542606,-1.3325753,-0.46060273,-1.237669,-0.9436222
-0.64838916,-2.0415857,-0.56499314,-1.1131049,-0.21729818,0.14609417,-0.41874063,-0.30575576,-1.4504074,-0.7592684,-1.3618089,-0.86542606,-1.3325753,-0.46060273,-1.237669,-0.9436222
-0.64838916,-2.0415857,-0.56499314,-1.1131049,-0.21729818,0.14609417,-0.41874063,-0.30575576,-1.4504074,-0.7592684,-1.3618089,-0.86542606,-1.3325753,-0.46060273,-1.237669,-0.9436222
-0.06545755,-0.20567386,1.5216666,0.24504858,0.13493174,-0.26195383,-0.039905675,-0.04166352,-1.4504074,-0.7592684,-1.3618089,-0.86542606,-1.3325753,-0.46060273,-1.237669,-0.9436222
-0.2597681,-0.37257496,-0.5036208,0.42613572,0.48716167,-0.05792983,-0.29246232,-0.4378019,-1.4504074,-0.7592684,-1.3618089,-0.86542606,-1.3325753,-0.46060273,-1.237669,-0.9436222
-0.2597681,-0.20567386,0.29421967,0.5166793,-1.4501029,-0.46597782,-0.166184,-0.30575576,-1.4504074,-0.7592684,-1.391457,-0.86542606,-1.3325753,-0.46060273,-1.237669,-0.9436222
0.12885298,0.46193045,0.7238261,0.60722286,-0.04118322,-0.05792983,-0.039905675,0.09038261,-1.4504074,-0.7592684,-1.391457,-0.86542606,-1.3325753,-0.46060273,-1.237669,-0.9436222
0.12885298,0.46193045,0.7238261,0.60722286,-0.04118322,-0.05792983,-0.039905675,0.09038261,-1.4504074,-0.7592684,-1.391457,-0.86542606,-1.3325753,-0.46060273,-1.237669,-0.9436222
0.12885298,0.46193045,0.7238261,0.60722286,-0.04118322,-0.05792983,-0.039905675,0.09038261,-1.4504074,-0.7592684,-1.391457,-0.86542606,-1.3325753,-0.46060273,-1.237669,-0.9436222
0.12885298,1.7971392,0.23284733,0.24504858,0.3110467,0.35011816,0.08637264,-0.04166352,-1.4504074,-0.7592684,-1.421105,-0.86542606,-1.3325753,-0.46060273,-1.237669,-0.9436222
0.32316354,0.46193045,0.048730295,-0.56984353,-0.7456431,-0.6700018,-0.166184,-0.04166352,-1.4504074,-0.7592684,-1.421105,-0.86542606,-1.3325753,-0.46060273,-1.237669,-0.9436222
0.32316354,0.46193045,0.048730295,-0.56984353,-0.7456431,-0.6700018,-0.166184,-0.04166352,-1.4504074,-0.7592684,-1.421105,-0.86542606,-1.3325753,-0.46060273,-1.237669,-0.9436222
-0.06545755,-0.53947604,0.35559204,1.1504843,1.0155065,1.1662141,0.08637264,0.09038261,-1.4504074,-0.7592684,-1.391457,-0.86542606,-1.3325753,-0.48444864,-1.237669,-0.9436222
0.32316354,0.29502937,-0.31950378,0.78831,0.3110467,-0.26195383,-0.166184,-0.04166352,-1.4504074,-0.7592684,-1.391457,-0.86542606,-1.3325753,-0.48444864,-1.237669,-0.9436222
-0.06545755,0.9626337,-0.38087612,0.06396145,-0.5695281,-0.05792983,-0.039905675,0.09038261,-1.4504074,-0.7592684,-1.391457,-0.86542606,-1.3325753,-0.48444864,-1.237669,-0.9436222
-0.06545755,0.9626337,-0.38087612,0.06396145,-0.5695281,-0.05792983,-0.039905675,0.09038261,-1.4504074,-0.7592684,-1.391457,-0.86542606,-1.3325753,-0.48444864,-1.237669,-0.9436222
-0.2597681,-1.0401793,-0.38087612,-1.0225614,-0.39341313,-0.05792983,-0.166184,0.22242874,-1.4504074,-0.7592684,-1.391457,-0.86542606,-1.3325753,-0.48444864,-1.237669,-0.9436222
0.32316354,-1.0401793,0.60108143,-0.47929996,-0.21729818,-0.46597782,0.21265097,-0.04166352,-1.4504074,-0.7592684,-1.3618089,-0.86542606,-1.3325753,-0.46060273,-1.237669,-0.9436222
0.12885298,-0.8732782,1.3375496,1.422115,1.7199664,0.7581662,0.08637264,-0.04166352,-1.4504074,-0.7592684,-1.3618089,-0.86542606,-1.3325753,-0.46060273,-1.237669,-0.9436222
0.12885298,-0.8732782,1.3375496,1.422115,1.7199664,0.7581662,0.08637264,-0.04166352,-1.4504074,-0.7592684,-1.3618089,-0.86542606,-1.3325753,-0.46060273,-1.237669,-0.9436222
-0.45407864,0.29502937,-0.9945996,-0.47929996,-0.7456431,-0.8740258,-0.41874063,-0.17370965,-1.4504074,-0.7592684,-1.3618089,-0.86542606,-1.3325753,-0.46060273,-1.237669,-0.9436222
0.7117846,1.463337,1.5830389,1.5126586,0.8393916,0.96219015,0.21265097,0.09038261,-1.4504074,-0.7592684,-1.3618089,-0.86542606,-1.3325753,-0.46060273,-1.237669,-0.9436222
0.7117846,1.463337,1.5830389,1.5126586,0.8393916,0.96219015,0.21265097,0.09038261,-1.4504074,-0.7592684,-1.3618089,-0.86542606,-1.3325753,-0.46060273,-1.237669,-0.9436222
-0.06545755,0.62883157,0.29421967,0.78831,0.6632766,0.5541422,-0.166184,-0.17370965,-1.4504074,-0.7592684,-1.3618089,-0.89212555,-1.3325753,-0.46060273,-1.237669,-0.9436222
0.12885298,-0.37257496,-1.1787167,-1.4752792,-1.097873,-0.8740258,0.5914859,0.22242874,-1.4504074,-0.7592684,-1.3618089,-0.89212555,-1.3325753,-0.46060273,-1.237669,-0.9436222
0.90609515,2.1309414,0.171475,-0.6603871,-1.097873,-0.6700018,0.21265097,0.486521,-1.4504074,-0.7592684,-1.3618089,-0.89212555,-1.3325753,-0.46060273,-1.237669,-0.9436222
-0.45407864,-0.8732782,-1.1173443,-0.84147424,0.3110467,0.14609417,0.21265097,-0.30575576,-1.4504074,-0.7592684,-1.3618089,-0.89212555,-1.3325753,-0.46060273,-1.237669,-0.9436222
2.4605794,0.7957326,0.110102646,1.3315715,-0.5695281,-0.26195383,-0.039905675,0.22242874,-1.4504074,-0.7592684,-1.3618089,-0.89212555,-1.3325753,-0.46060273,-1.237669,-0.9436222
2.4605794,0.7957326,0.110102646,1.3315715,-0.5695281,-0.26195383,-0.039905675,0.22242874,-1.3922675,-0.7592684,-1.1246244,-0.86542606,-1.2252698,-0.41291094,-1.1620771,-0.80084866
1.1004057,0.9626337,0.6624538,1.1504843,1.3677365,1.1662141,-0.039905675,-0.17370965,-1.3922675,-0.7592684,-1.1246244,-0.86542606,-1.2252698,-0.41291094,-1.1620771,-0.80084866
1.1004057,0.9626337,0.6624538,1.1504843,1.3677365,1.1662141,-0.039905675,-0.17370965,-1.3922675,-0.7592684,-1.1246244,-0.86542606,-1.2252698,-0.41291094,-1.1620771,-0.80084866
0.51747406,-0.038772784,0.35559204,0.6977664,0.8393916,-0.05792983,-0.039905675,-0.04166352,-1.3922675,-0.7592684,-1.1246244,-0.86542606,-1.2252698,-0.41291094,-1.1620771,-0.80084866
-1.4256313,-2.2084868,-1.3628336,-2.1090841,-1.097873,-0.8740258,-0.29246232,-0.30575576,-1.3922675,-0.7592684,-1.1246244,-0.86542606,-1.2252698,-0.41291094,-1.1620771,-0.80084866
-0.45407864,-0.038772784,0.29421967,0.15450501,0.8393916,0.7581662,-0.29246232,-0.17370965,-0.49445546,-0.1429092,-0.5250243,-0.4089292,-0.47864538,-0.4480829,0.54211044,0.044077154
-0.45407864,-0.038772784,0.29421967,0.15450501,0.8393916,0.7581662,-0.29246232,-0.17370965,-0.49445546,-0.1429092,-0.5250243,-0.4089292,-0.47864538,-0.4480829,0.54211044,0.044077154
-0.45407864,-0.038772784,0.29421967,0.15450501,0.8393916,0.7581662,-0.29246232,-0.17370965,-0.49445546,-0.1429092,-0.5250243,-0.4089292,-0.47864538,-0.4480829,0.54211044,0.044077154
0.12885298,-0.20567386,-0.56499314,-0.20766926,0.3110467,0.5541422,0.21265097,0.09038261,-0.49445546,-0.1429092,-0.5250243,-0.4089292,-0.47864538,-0.4480829,0.54211044,0.044077154
0.12885298,-0.20567386,-0.56499314,-0.20766926,0.3110467,0.5541422,0.21265097,0.09038261,-0.49445546,-0.1429092,-0.5250243,-0.4089292,-0.47864538,-0.4480829,0.54211044,0.044077154
0.12885298,-0.37257496,0.47833672,0.87885356,-0.7456431,-0.46597782,0.21265097,0.09038261,-0.52352536,-0.1429092,-0.55467236,-0.4089292,-0.47864538,-0.4480829,0.54211044,0.044077154
0.90609515,1.1295348,-0.01264205,-0.47929996,1.3677365,1.1662141,-0.039905675,-0.04166352,-0.52352536,-0.1429092,-0.55467236,-0.4089292,-0.47864538,-0.4480829,0.54211044,0.044077154
-0.2597681,-0.038772784,-0.01264205,0.60722286,-0.39341313,-0.26195383,0.3389293,0.22242874,-0.52352536,-0.1429092,-0.55467236,-0.4089292,-0.47864538,-0.4480829,0.54211044,0.044077154
-0.2597681,-0.038772784,-0.01264205,0.60722286,-0.39341313,-0.26195383,0.3389293,0.22242874,-0.52352536,-0.1429092,-0.55467236,-0.4089292,-0.47864538,-0.4480829,0.54211044,0.044077154
-0.45407864,-1.3739815,-0.25813144,0.9693971,-0.21729818,-0.26195383,0.3389293,-0.04166352,-0.52352536,-0.1429092,-0.55467236,-0.4089292,-0.47864538,-0.4480829,0.54211044,0.044077154
0.32316354,0.46193045,0.6624538,1.9653764,1.7199664,0.14609417,0.08637264,0.09038261,-0.52352536,-0.1429092,-0.55467236,-0.4089292,-0.47864538,-0.4480829,0.54211044,0.044077154
-0.2597681,-0.038772784,-0.01264205,-0.3887564,-0.921758,-0.46597782,-0.166184,0.09038261,-0.52352536,-0.1429092,-0.55467236,-0.4089292,-0.47864538,-0.4480829,0.54211044,0.044077154
-0.2597681,-0.038772784,-0.01264205,-0.3887564,-0.921758,-0.46597782,-0.166184,0.09038261,-0.52352536,-0.1429092,-0.55467236,-0.4089292,-0.47864538,-0.4480829,0.5043145,0.044077154
-0.64838916,-1.0401793,-0.8718549,-5.730827,-3.3873675,-1.4860978,-0.545019,-0.17370965,-0.52352536,-0.1429092,-0.55467236,-0.4089292,-0.47864538,-0.4480829,0.5043145,0.044077154
-0.06545755,-0.038772784,-0.19675909,-0.9320178,0.48716167,0.14609417,0.21265097,-0.04166352,-0.52352536,-0.1429092,-0.55467236,-0.4089292,-0.47864538,-0.4480829,0.5043145,0.044077154
0.12885298,0.62883157,0.29421967,0.42613572,1.3677365,1.5742621,0.4652076,0.09038261,-0.52352536,-0.1429092,-0.55467236,-0.4089292,-0.47864538,-0.4480829,0.5043145,0.044077154
-0.45407864,-1.7077836,-0.074014395,1.6937457,0.8393916,0.5541422,0.21265097,0.22242874,-0.52352536,-0.1429092,-0.5250243,-0.3822297,-0.47864538,-0.4480829,0.5043145,0.044077154
-0.06545755,-0.038772784,-0.31950378,0.15450501,-0.5695281,-1.4860978,-0.41874063,-0.4378019,-0.52352536,-0.1429092,-0.5250243,-0.3822297,-0.47864538,-0.4480829,0.5043145,0.044077154
0.7117846,1.630238,0.47833672,0.6977664,-0.21729818,1.1662141,-0.29246232,0.35447487,-0.52352536,-0.1429092,-0.5250243,-0.3822297,-0.47864538,-0.4480829,0.5043145,0.044077154
-0.2597681,-1.5408825,-1.055972,-0.84147424,-1.2739879,0.35011816,-0.166184,-0.17370965,-0.52352536,-0.1429092,-0.5250243,-0.3822297,-0.47864538,-0.4480829,0.5043145,0.044077154
0.32316354,-0.038772784,-0.44224846,-2.1996279,-0.5695281,-0.46597782,-0.166184,0.09038261,-0.52352536,-0.1429092,-0.5250243,-0.3822297,-0.47864538,-0.4480829,0.5043145,0.044077154
0.32316354,-0.038772784,-0.44224846,-2.1996279,-0.5695281,-0.46597782,-0.166184,0.09038261,-0.49445546,-0.1429092,-0.5250243,-0.3822297,-0.47864538,-0.4480829,0.4665185,0.044077154
-0.06545755,0.29502937,-0.074014395,-2.833433,-1.2739879,-0.05792983,0.5914859,0.22242874,-0.49445546,-0.1429092,-0.5250243,-0.3822297,-0.47864538,-0.4480829,0.4665185,0.044077154
-0.45407864,0.1281283,-0.19675909,1.2410278,0.13493174,-0.26195383,-0.039905675,-0.04166352,-0.49445546,-0.1429092,-0.5250243,-0.3822297,-0.47864538,-0.4480829,0.4665185,0.044077154
0.12885298,0.46193045,0.60108143,0.9693971,1.3677365,1.1662141,-0.166184,0.09038261,-0.49445546,-0.1429092,-0.5250243,-0.3822297,-0.47864538,-0.4480829,0.4665185,0.044077154
0.12885298,0.29502937,0.78519845,0.9693971,1.0155065,-0.6700018,-0.166184,0.09038261,-0.49445546,-0.1429092,-0.5250243,-0.3822297,-0.47864538,-0.4480829,0.4665185,0.044077154
0.12885298,0.29502937,0.78519845,0.9693971,1.0155065,-0.6700018,-0.166184,0.09038261,-0.52352536,-0.1429092,-0.5250243,-0.4089292,-0.47864538,-0.4480829,0.4665185,0.044077154
-0.06545755,-0.20567386,-0.13538675,0.24504858,1.3677365,1.7782861,0.21265097,-0.04166352,-0.52352536,-0.1429092,-0.5250243,-0.4089292,-0.47864538,-0.4480829,0.4665185,0.044077154
-0.06545755,-0.20567386,-0.13538675,0.24504858,1.3677365,1.7782861,0.21265097,-0.04166352,-0.52352536,-0.1429092,-0.5250243,-0.4089292,-0.47864538,-0.4480829,0.4665185,0.044077154
0.32316354,0.46193045,0.96931547,3.2329865,0.8393916,-0.05792983,0.21265097,0.22242874,-0.52352536,-0.1429092,-0.5250243,-0.4089292,-0.47864538,-0.4480829,0.4665185,0.044077154
-0.06545755,-0.038772784,-0.074014395,-0.20766926,0.3110467,0.35011816,-0.039905675,-0.04166352,-0.49445546,-0.1429092,-0.55467236,-0.4089292,-0.47864538,-0.4480829,0.4665185,0.044077154
-0.06545755,-0.038772784,-0.074014395,-0.20766926,0.3110467,0.35011816,-0.039905675,-0.04166352,-0.49445546,-0.1429092,-0.55467236,-0.4089292,-0.47864538,-0.4480829,0.4665185,0.044077154
-0.2597681,0.62883157,0.171475,2.2370071,-0.04118322,-0.05792983,-0.41874063,0.09038261,-0.49445546,-0.1429092,-0.55467236,-0.4089292,-0.47864538,-0.4480829,0.4665185,0.044077154
-0.2597681,0.62883157,0.171475,2.2370071,-0.04118322,-0.05792983,-0.41874063,0.09038261,-0.49445546,-0.1429092,-0.55467236,-0.4089292,-0.47864538,-0.4480829,0.4665185,0.044077154
0.51747406,0.62883157,-0.19675909,-1.6563663,-0.39341313,1.3702382,-0.166184,0.35447487,-0.49445546,-0.1429092,-0.55467236,-0.4089292,-0.47864538,-0.4480829,0.4665185,0.044077154
0.51747406,0.62883157,-0.19675909,-1.6563663,-0.39341313,1.3702382,-0.166184,0.35447487,-0.49445546,-0.1429092,-0.55467236,-0.4089292,-0.47864538,-0.4480829,0.4665185,0.044077154
0.32316354,-0.038772784,0.35559204,-0.47929996,0.48716167,0.35011816,0.08637264,0.09038261,-0.52352536,-0.1429092,-0.55467236,-0.3822297,-0.47864538,-0.4480829,0.4665185,0.044077154
0.32316354,0.46193045,-0.31950378,-1.6563663,-0.39341313,-0.46597782,0.21265097,-0.04166352,-0.52352536,-0.1429092,-0.55467236,-0.3822297,-0.47864538,-0.4480829,0.4665185,0.044077154
-0.06545755,0.9626337,0.048730295,0.42613572,0.6632766,-0.26195383,-0.41874063,-0.30575576,-0.52352536,-0.1429092,-0.55467236,-0.3822297,-0.47864538,-0.4480829,0.4665185,0.044077154
-0.06545755,0.9626337,0.048730295,0.42613572,0.6632766,-0.26195383,-0.41874063,-0.30575576,-0.52352536,-0.1429092,-0.55467236,-0.3822297,-0.47864538,-0.4480829,0.4665185,0.044077154
-0.06545755,-0.20567386,0.41696438,1.5126586,1.0155065,-0.26195383,0.3389293,-0.04166352,-0.52352536,-0.1429092,-0.55467236,-0.3822297,-0.47864538,-0.4480829,0.4665185,0.044077154
0.51747406,0.29502937,0.171475,1.2410278,0.3110467,-0.05792983,-0.166184,0.09038261,-0.52352536,-0.1429092,-0.55467236,-0.4089292,-0.47864538,-0.4480829,0.4665185,0.044077154
1.2947162,-0.20567386,0.23284733,-0.026582126,-0.04118322,-0.46597782,-0.166184,0.35447487,-0.52352536,-0.1429092,-0.55467236,-0.4089292,-0.47864538,-0.4480829,0.4665185,0.044077154
1.2947162,-0.20567386,0.23284733,-0.026582126,-0.04118322,-0.46597782,-0.166184,0.35447487,-0.52352536,-0.1429092,-0.55467236,-0.4089292,-0.47864538,-0.4480829,0.4665185,0.044077154
-0.2597681,0.1281283,0.171475,-0.6603871,0.48716167,-0.05792983,-0.166184,0.09038261,-0.52352536,-0.1429092,-0.55467236,-0.4089292,-0.47864538,-0.4480829,0.4665185,0.044077154
-0.2597681,0.1281283,0.171475,-0.6603871,0.48716167,-0.05792983,-0.166184,0.09038261,-0.52352536,-0.1429092,-0.55467236,-0.4089292,-0.47864538,-0.4480829,0.4665185,0.044077154
-0.2597681,-0.53947604,0.048730295,0.06396145,-0.39341313,-0.46597782,-0.166184,-0.17370965,-0.52352536,-0.1429092,-0.55467236,-0.4089292,-0.5144139,-0.47192878,0.42872253,0.015522449
-0.2597681,0.29502937,-0.62636554,-1.6563663,-1.2739879,-1.0780498,-0.545019,-0.56984806,-0.52352536,-0.1429092,-0.55467236,-0.4089292,-0.5144139,-0.47192878,0.42872253,0.015522449
-0.06545755,-0.038772784,-0.01264205,3.32353,0.13493174,0.14609417,0.08637264,-0.17370965,-0.52352536,-0.1429092,-0.55467236,-0.4089292,-0.5144139,-0.47192878,0.42872253,0.015522449
-0.06545755,-0.038772784,-0.01264205,3.32353,0.13493174,0.14609417,0.08637264,-0.17370965,-0.52352536,-0.1429092,-0.55467236,-0.4089292,-0.5144139,-0.4480829,0.42872253,-0.013032257
-0.06545755,0.1281283,0.23284733,-0.29821283,0.6632766,0.5541422,-0.039905675,0.09038261,-0.52352536,-0.1429092,-0.55467236,-0.4089292,-0.5144139,-0.4480829,0.42872253,-0.013032257
-0.06545755,0.1281283,0.23284733,-0.29821283,0.6632766,0.5541422,-0.039905675,0.09038261,-0.52352536,-0.1429092,-0.55467236,-0.4089292,-0.5144139,-0.4480829,0.42872253,-0.013032257
0.32316354,0.29502937,-0.13538675,-0.56984353,1.1916215,0.35011816,-0.039905675,0.22242874,-0.52352536,-0.1429092,-0.55467236,-0.4089292,-0.5144139,-0.4480829,0.42872253,-0.013032257
0.51747406,-0.038772784,-0.25813144,-1.2036486,1.0155065,-0.26195383,-0.29246232,0.09038261,-0.52352536,-0.1429092,-0.55467236,-0.4089292,-0.5144139,-0.4480829,0.42872253,-0.013032257
-0.06545755,0.1281283,0.47833672,0.78831,0.13493174,-0.26195383,-0.039905675,-0.04166352,-0.52352536,-0.1429092,-0.55467236,-0.4089292,-0.5144139,-0.47192878,0.42872253,-0.04158696
-0.06545755,0.1281283,0.47833672,0.78831,0.13493174,-0.26195383,-0.039905675,-0.04166352,-0.52352536,-0.1429092,-0.55467236,-0.4089292,-0.5144139,-0.47192878,0.42872253,-0.04158696
-0.64838916,-1.0401793,-1.3014613,-4.6443043,-1.6262178,-0.46597782,-0.166184,-0.30575576,-0.52352536,-0.1429092,-0.55467236,-0.4089292,-0.5144139,-0.47192878,0.42872253,-0.04158696
-0.64838916,-1.0401793,-1.3014613,-4.6443043,-1.6262178,-0.46597782,-0.166184,-0.30575576,-0.52352536,-0.1429092,-0.55467236,-0.4089292,-0.5144139,-0.47192878,0.42872253,-0.04158696
-0.2597681,-0.53947604,-1.055972,-6.2740884,-2.6829076,-0.26195383,-0.039905675,-0.30575576,-0.52352536,-0.1429092,-0.55467236,-0.4089292,-0.5144139,-0.47192878,0.42872253,-0.04158696
-0.06545755,0.29502937,0.29421967,0.33559215,-0.7456431,-0.26195383,-0.166184,0.22242874,-0.52352536,-0.1429092,-0.55467236,-0.4089292,-0.5144139,-0.4480829,0.39092657,-0.04158696
-0.06545755,0.29502937,0.29421967,0.33559215,-0.7456431,-0.26195383,-0.166184,0.22242874,-0.52352536,-0.1429092,-0.55467236,-0.4089292,-0.5144139,-0.4480829,0.39092657,-0.04158696
-0.2597681,0.29502937,0.41696438,1.0599407,-0.04118322,-0.46597782,0.21265097,-0.04166352,-0.52352536,-0.1429092,-0.55467236,-0.4089292,-0.5144139,-0.4480829,0.39092657,-0.04158696
-0.2597681,0.29502937,0.41696438,1.0599407,-0.04118322,-0.46597782,0.21265097,-0.04166352,-0.52352536,-0.1429092,-0.55467236,-0.4089292,-0.5144139,-0.4480829,0.39092657,-0.04158696
-0.06545755,0.46193045,0.35559204,2.1464636,0.6632766,-0.05792983,-0.166184,-0.04166352,-0.52352536,-0.1429092,-0.55467236,-0.4089292,-0.5144139,-0.4480829,0.39092657,-0.04158696
-0.06545755,0.46193045,0.35559204,2.1464636,0.6632766,-0.05792983,-0.166184,-0.04166352,-0.52352536,-0.1429092,-0.55467236,-0.4089292,-0.5144139,-0.4480829,0.39092657,-0.04158696
-0.06545755,0.46193045,0.35559204,2.1464636,0.6632766,-0.05792983,-0.166184,-0.04166352,-0.52352536,-0.1429092,-0.55467236,-0.4089292,-0.5144139,-0.47192878,0.3531306,-0.04158696
-0.64838916,-0.8732782,-0.074014395,-0.29821283,1.7199664,0.96219015,0.21265097,-0.04166352,-0.52352536,-0.1429092,-0.55467236,-0.4089292,-0.5144139,-0.47192878,0.3531306,-0.04158696
-0.06545755,-1.0401793,-1.424206,-0.56984353,-0.5695281,-1.2820739,-0.039905675,-0.04166352,-0.52352536,-0.1429092,-0.55467236,-0.4089292,-0.5144139,-0.47192878,0.3531306,-0.04158696
0.32316354,0.46193045,0.60108143,1.2410278,0.48716167,0.14609417,-0.29246232,-0.30575576,-0.52352536,-0.1429092,-0.55467236,-0.4089292,-0.5144139,-0.47192878,0.3531306,-0.04158696
-0.45407864,-0.53947604,-0.9945996,-0.56984353,-0.39341313,-0.05792983,-0.039905675,-0.17370965,-0.52352536,-0.1429092,-0.55467236,-0.4089292,-0.5501824,-0.47192878,0.2775387,-0.09869637
-0.45407864,-0.53947604,-0.9945996,-0.56984353,-0.39341313,-0.05792983,-0.039905675,-0.17370965,-0.52352536,-0.1429092,-0.55467236,-0.4089292,-0.5501824,-0.47192878,0.2775387,-0.09869637
-0.06545755,0.29502937,0.35559204,-1.5658228,0.3110467,0.35011816,0.21265097,0.22242874,-0.52352536,-0.1429092,-0.55467236,-0.4089292,-0.5501824,-0.47192878,0.2775387,-0.09869637
-0.06545755,-0.37257496,0.29421967,2.5991814,-0.21729818,-0.46597782,-0.039905675,-0.04166352,-0.52352536,-0.1429092,-0.55467236,-0.4089292,-0.5501824,-0.47192878,0.2775387,-0.09869637
